# OperatorName = Michael Matus
# Modification = Created as New Dataset
# ModificationDateTime = thu jul 21 11:17:53 2022 Coordinated Universal Time (GMT+0:00)
# Parameters = 
# SampleDescription = MM04 BG20 535341 d=2.0 mm Q50mm
# InstrumentModel = Lambda 1050+
# InstrumentSerialNumber = 1060L2011032
# InstrumentSoftwareRevision = PerkinElmer UV WinLab 7.1.0.68 / 2.02.11 Lambda 900 UV/VIS/NIR, May 23 2018 11:23:04
# SlitWidth = 3350/servo 1800.8/servo 840.8/1
# LampsUsed = UV/VIS
# InstrumentAccessories = CommonBeamDepol,RBeamAtt,SBeamAtt,uv/vis/nir detector, TDS WB InGaAs Detector
# UvVisSlitMode = Program
# NirSlitMode = Program
# NirSlitWidth = 3350/servo 1800.8/servo 840.8/1
# UvVisIntegrationTime = 3350/0.2 1800.8/0.2 840.8/1
# NirIntegrationTime = 3350/0.2 1800.8/0.2 840.8/1
# NirDetectorGain = 3350/1.00 1800.8/1.00
# DetectorChangeAt = 1800.8 840.8
# SampleBeamPosition = Front
# CommonBeamDepolarizer = off
# AttenuatorsUsed = S:100 R:0.1
# DataSetChecksum = 0
# DataSetDataType = 16
# DataSetName = C:\Users\Administrator\source\repos\PerkinElmer2CSV\TestData\Sample51.test.sp
# DataSetAbscissaRange = 220 1800
# DataSetOrdinateRange = 0 91.0471616342048
# DataSetInterval = -1
# DataSetNumPoints = 1581
# DataSetXAxisLabel = nm
# DataSetXAxisUnitType = 11
# DataSetYAxisLabel = %T
# DataSetYAxisUnitType = 2
# DataSetSamplingMethod = 0
# DataSetFileType = 0
# DataSetAlias = Sample51.test_2
# SourceFile = BG20.mod2.sp
nm,%T
220,3.26937979205049E-05
221,3.32059326220065E-05
222,3.37046748667015E-05
223,3.41058517464753E-05
224,3.44096468670833E-05
225,3.46410317033918E-05
226,3.47418449010082E-05
227,3.4809643750653E-05
228,3.4835496054854E-05
229,3.47864154254958E-05
230,3.46414539674557E-05
231,3.43133559714659E-05
232,3.38309214319262E-05
233,3.32531236210386E-05
234,3.26379892910405E-05
235,3.19952272531426E-05
236,3.13149170969806E-05
237,3.05818058288543E-05
238,2.98533745695946E-05
239,2.93334835521996E-05
240,2.92175987139097E-05
241,3.05332347839277E-05
242,3.76017935824055E-05
243,6.38551569894173E-05
244,0.00014338208120628
245,0.00034861550216516
246,0.000809908180500158
247,0.0017176597571632
248,0.00331827602198619
249,0.00592131762224976
250,0.0099524098634962
251,0.0161345323694903
252,0.0256202673436696
253,0.0399707215480163
254,0.0609866447253155
255,0.0906800279782901
256,0.131287150913987
257,0.185146017845867
258,0.25467949724669
259,0.342526112373978
260,0.451541592336569
261,0.584454121125829
262,0.744147964348919
263,0.933729071854063
264,1.15586758422825
265,1.41241792898471
266,1.70452296415091
267,2.03335796978827
268,2.39966372976399
269,2.80371955310938
270,3.24554526325117
271,3.72536197272767
272,4.24297422927079
273,4.7971793572955
274,5.38707463676265
275,6.01085569275228
276,6.66474621249206
277,7.34387764742207
278,8.04086275150859
279,8.74532075690053
280,9.44683762410933
281,10.1405375181112
282,10.8258210912983
283,11.5055778369222
284,12.1827637078296
285,12.8599178787904
286,13.5390042645291
287,14.2130325278014
288,14.8665103766771
289,15.4830855320053
290,16.0555796708345
291,16.5935140273841
292,17.1173476227883
293,17.6438176985381
294,18.1791075934819
295,18.7276273101713
296,19.2915319774909
297,19.8691846699795
298,20.4558430032157
299,21.0495066173048
300,21.6684470152643
301,22.3447644731687
302,23.1136009610866
303,23.9884774222387
304,24.9609315278595
305,26.0162053709092
306,27.1444752239492
307,28.3363877452678
308,29.5697120001092
309,30.8182637494855
310,32.0526652845326
311,33.2438311719125
312,34.3532830294566
313,35.3341704559056
314,36.1386348174888
315,36.7254674422551
316,37.0623830767328
317,37.1394484321846
318,36.9460891557565
319,36.4777747463692
320,35.7378087449558
321,34.7492726627203
322,33.5428457094533
323,32.1821045187656
324,30.7428294936679
325,29.3085937615071
326,27.96632873686
327,26.790295341254
328,25.837421672836
329,25.1417283573292
330,24.7214924165925
331,24.5888002171794
332,24.7428072928202
333,25.1666371543162
334,25.7981322629282
335,26.5259844242177
336,27.2296828191462
337,27.8150707921117
338,28.2038315484425
339,28.3245587789784
340,28.1232582524719
341,27.5723994612996
342,26.6649582189415
343,25.3996801907081
344,23.7740230639692
345,21.8038914801134
346,19.5232297218944
347,17.04756412009
348,14.5685604286787
349,12.2205386256221
350,10.0779808317671
351,8.21614218045812
352,6.72592391822973
353,5.70136789885386
354,5.22448222514897
355,5.37269155632311
356,6.21441532064842
357,7.7955372563782
358,10.1386341076869
359,13.2334906143669
360,17.0199539921458
361,21.4257632798167
362,26.4005883677747
363,31.8731164204206
364,37.7313753796701
365,43.8369172380773
366,50.0345488767681
367,56.1138695643918
368,61.8852912623413
369,67.2206230662475
370,72.0364862843777
371,76.2647387593992
372,79.8784101854335
373,82.8963552612465
374,85.3067662715764
375,87.1147456630949
376,88.3769523447556
377,89.1403082163972
378,89.4478192256497
379,89.3584055010046
380,89.1126272553296
381,88.797712075694
382,88.4640970582467
383,88.1657507699421
384,87.9568603236497
385,87.8568394077909
386,87.8142848338872
387,87.8288987568306
388,87.8722531510251
389,87.9286698373399
390,87.9954689219491
391,88.064121723351
392,88.1281277590696
393,88.1338700287507
394,88.0778513429294
395,87.978402833999
396,87.8299025846007
397,87.6193435824695
398,87.3624032286857
399,87.0793326435782
400,86.8003913445522
401,86.5470876473676
402,86.3417345649722
403,86.2119857839221
404,86.1732010061472
405,86.2012453276934
406,86.2687795972439
407,86.3584596670582
408,86.4457890420207
409,86.5082006817806
410,86.5293921955652
411,86.4837177076152
412,86.3691266583871
413,86.1732795462444
414,85.8993511157506
415,85.5479796920815
416,85.0757802219337
417,84.3481467309829
418,83.2671440911243
419,81.8318198295305
420,80.0871118332994
421,78.0691110385332
422,75.7983256490797
423,73.2814421773717
424,70.5208852209974
425,67.4726247947005
426,64.107312234774
427,60.377470088649
428,56.253543226492
429,51.8448879602331
430,47.4770458909499
431,43.3616405777328
432,39.4775707091015
433,35.7523628971175
434,32.1488845621962
435,28.669889297357
436,25.350073236626
437,22.24608065202
438,19.4358611653453
439,16.9881352945373
440,14.963840037118
441,13.3880964196673
442,12.1943833711763
443,11.2462362043443
444,10.4732166536337
445,9.88970947660606
446,9.52236077149327
447,9.37805063745501
448,9.44330485495045
449,9.6869572791227
450,10.0645653421517
451,10.5251186676693
452,11.0204329381367
453,11.5092216718724
454,11.9565118801337
455,12.3356329487293
456,12.6284966647254
457,12.8244295719053
458,12.9188851747787
459,12.9106616153638
460,12.8022336083453
461,12.6019386171164
462,12.3243305512777
463,11.9899703592031
464,11.6216562969718
465,11.2425221470206
466,10.8749264782022
467,10.539871714867
468,10.2527192643049
469,10.0200459358362
470,9.84576507058726
471,9.73848394525463
472,9.71447423813405
473,9.79613142328376
474,10.004758127701
475,10.3568643056297
476,10.8672847992118
477,11.5526863843879
478,12.4276813947952
479,13.5012936924961
480,14.7813373131317
481,16.2798898876709
482,18.0113662984208
483,19.9822187678922
484,22.1778757902011
485,24.5580239582369
486,27.058420108667
487,29.6018263911565
488,32.1061094479662
489,34.4889699621775
490,36.6674918297217
491,38.5650494552416
492,40.1138254310255
493,41.2512193669291
494,41.9271954607206
495,42.1074380755223
496,41.7729455373033
497,40.9294941288348
498,39.6064708612437
499,37.8575441080493
500,35.7499107256457
501,33.3571553184898
502,30.7576828767477
503,28.0299376723624
504,25.2487506383468
505,22.4908087190702
506,19.8252526049717
507,17.3089937572749
508,14.9864508991521
509,12.8876888173085
510,11.0283006203957
511,9.41197179757419
512,8.03218290462147
513,6.87533965890731
514,5.92145341287821
515,5.1450493880337
516,4.51749380763856
517,4.00870295401227
518,3.59017486861106
519,3.24203425329326
520,2.95691739818965
521,2.74431687931257
522,2.62807138000139
523,2.63726889670412
524,2.79988882133482
525,3.14333725861171
526,3.69861904753907
527,4.49961850932349
528,5.58469537171848
529,6.9937424739107
530,8.76288914517361
531,10.9190124532915
532,13.4712665034465
533,16.407616672866
534,19.6945432071886
535,23.2861533256566
536,27.1282196206986
537,31.1618182095229
538,35.3298118378148
539,39.5677296379552
540,43.8080293114131
541,47.9756046849949
542,51.9972766592613
543,55.8010683116978
544,59.3212658338551
545,62.5125873838981
546,65.3439507537398
547,67.8001528046973
548,69.8629382787067
549,71.5218680280093
550,72.7656977843565
551,73.5831884617575
552,73.9658166657955
553,73.8936290194153
554,73.3323423166133
555,72.2424028832369
556,70.6104900777742
557,68.4474788116475
558,65.7758196759776
559,62.6240297558143
560,59.0216721398149
561,55.0133457264266
562,50.6491229630101
563,46.0147725744806
564,41.165210840918
565,36.1899102521735
566,31.21840240331
567,26.4053954555242
568,21.9046359367799
569,17.8144501125524
570,14.1757869368682
571,10.9928354457236
572,8.2641439932289
573,5.98267639875808
574,4.131377798131
575,2.68347522076653
576,1.6028610330673
577,0.858832998591285
578,0.400498886987114
579,0.158314586470092
580,0.0542662692223518
581,0.0182057018695384
582,0.00727851309792436
583,0.00521259988672096
584,0.0103573402532636
585,0.0238836075016715
586,0.0498290206408464
587,0.095680497106729
588,0.17207941266592
589,0.2937916026051
590,0.480055703554326
591,0.755419495431811
592,1.15136266476589
593,1.70461743312602
594,2.45408534334972
595,3.44326268261579
596,4.71552657485792
597,6.3124469373758
598,8.27190988953503
599,10.6192066383025
600,13.3709259872528
601,16.5312416901457
602,20.0894450345216
603,24.0157712794141
604,28.2638702535964
605,32.7751051100667
606,37.47191046441
607,42.2687235121117
608,47.0571459247123
609,51.7281016795251
610,56.1673122398899
611,60.2672913495716
612,63.9599782644495
613,67.1851710888218
614,69.8965374884272
615,72.0692132903332
616,73.7157267790251
617,74.8628601366036
618,75.5386564700506
619,75.806619902257
620,75.7288858710828
621,75.4086282331414
622,74.9410086743179
623,74.4359436111979
624,73.981413576933
625,73.6228764742717
626,73.4010682527665
627,73.3686653566107
628,73.5454581820791
629,73.9251719605764
630,74.4992320566842
631,75.2505888984867
632,76.1502065132889
633,77.182772702746
634,78.2931421089953
635,79.4510261796361
636,80.6058577177092
637,81.7325771916523
638,82.8223568704217
639,83.8601217584055
640,84.823607680809
641,85.7116457537769
642,86.5280989694917
643,87.2769176002512
644,87.9536355024902
645,88.5691167867995
646,89.1129639398356
647,89.5869250015946
648,89.9936199843958
649,90.3365414582751
650,90.6218887398822
651,90.8312020590831
652,90.9798465520895
653,91.0471616342048
654,91.011767608345
655,90.8661407790538
656,90.5837013599392
657,90.1546285714638
658,89.569428104205
659,88.8028714076769
660,87.8442921800218
661,86.6711689980465
662,85.2693470822304
663,83.6263902270414
664,81.732100171129
665,79.5842458500271
666,77.2032628289172
667,74.6040157129447
668,71.8162212936354
669,68.8787749756766
670,65.8317516734158
671,62.7229131160144
672,59.6248931044838
673,56.6053267860921
674,53.7348690695915
675,51.0736789344265
676,48.6741756671124
677,46.5933603372682
678,44.8736258485596
679,43.5462760814446
680,42.6416869294813
681,42.177702601112
682,42.162531134418
683,42.5896804071343
684,43.4339092874127
685,44.6491969478833
686,46.1794209996945
687,47.9728119796978
688,49.9833740367729
689,52.1682444917439
690,54.4784299090645
691,56.8718743895824
692,59.3169756272441
693,61.76397824723
694,64.1674744599334
695,66.4956825687562
696,68.719223751901
697,70.8139490914541
698,72.7698900573585
699,74.5810523162847
700,76.235683323722
701,77.7304892984565
702,79.0591832770883
703,80.2098899576023
704,81.1749294336884
705,81.9462053553373
706,82.5310453178333
707,82.9322599463016
708,83.1364421471259
709,83.1417954680766
710,82.9453245024875
711,82.533176319987
712,81.8899731039689
713,80.9914506022635
714,79.8045117519218
715,78.3001311358491
716,76.4430530951207
717,74.1999853166568
718,71.5541785532528
719,68.4942786263635
720,65.0331572325202
721,61.2081717412186
722,57.0556103617463
723,52.618582750584
724,47.9536283432759
725,43.1320804133945
726,38.2338239149216
727,33.3531819560156
728,28.5955330738316
729,24.0704844540852
730,19.8801283910107
731,16.0963433634985
732,12.7588242092931
733,9.86701775718316
734,7.41139129795364
735,5.37760688981174
736,3.74170202188113
737,2.47272839468416
738,1.53273220014036
739,0.878517368214738
740,0.458754043025151
741,0.216531921240937
742,0.0944374949505634
743,0.0410054960357546
744,0.0202526321307923
745,0.0143444761882714
746,0.0194892610274234
747,0.0344668263348541
748,0.0618707139828359
749,0.108378626632044
750,0.182580461397001
751,0.295101265191452
752,0.459058390730225
753,0.691423485520549
754,1.01314436024359
755,1.44712298834741
756,2.01821714734316
757,2.7507186055216
758,3.66581015322751
759,4.77992752973395
760,6.10065813582525
761,7.62703191869012
762,9.34884179752711
763,11.2443039127973
764,13.2821086865776
765,15.4202880364904
766,17.6044051010795
767,19.7740339680474
768,21.8635245338571
769,23.8021064601611
770,25.5204961284136
771,26.9554401234008
772,28.0497384213228
773,28.7620877925847
774,29.062469435374
775,28.9386204063264
776,28.4006720040999
777,27.472579208943
778,26.1961849515628
779,24.6260664644344
780,22.8135859108947
781,20.8226395568537
782,18.715120216582
783,16.5562561233241
784,14.4049877659385
785,12.3195952901856
786,10.351428516006
787,8.54190633163871
788,6.91956193927393
789,5.49804246542883
790,4.27970516233152
791,3.25615438164457
792,2.41236309786885
793,1.73410695158733
794,1.20335895271581
795,0.801531127543445
796,0.508876439304609
797,0.306491653436032
798,0.174390661544902
799,0.0936999623531882
800,0.0484293472287163
801,0.0260258013295078
802,0.0180817591999958
803,0.020026046721741
804,0.0309243946770822
805,0.0528560284110209
806,0.0893584346995745
807,0.145481486583437
808,0.228345786034474
809,0.347257276423214
810,0.513481894175846
811,0.739856598253283
812,1.04125734886797
813,1.43273541282268
814,1.93175749476446
815,2.5558758392166
816,3.32148922738037
817,4.24434045994289
818,5.33924096864697
819,6.62053156398925
820,8.1005067067922
821,9.7910040259736
822,11.69834797662
823,13.824773806154
824,16.1722164506012
825,18.739623015556
826,21.519263734009
827,24.4980691952971
828,27.6523235002353
829,30.8804863301237
830,34.1296373735068
831,37.376085044897
832,40.545796318833
833,43.5887500337575
834,46.4665140363486
835,49.1445303229886
836,51.5573785634683
837,53.6497736659558
838,55.3770665317191
839,56.7035138517119
840,57.5690672019431
841,57.9664710528038
842,58.1039894083262
843,57.9438928619217
844,57.449574072588
845,56.7202623310153
846,55.743050076872
847,54.4981308473878
848,52.9944199185179
849,51.3182876093398
850,49.4838493244167
851,47.5001006355524
852,45.4175278505358
853,43.2931771344968
854,41.1036387224027
855,38.7709305959673
856,36.3662389918714
857,33.933999246636
858,31.4752211099491
859,29.0517293108051
860,26.7124205024539
861,24.4583666312476
862,22.2987615101119
863,20.2585194148715
864,18.3683122227167
865,16.6256198034428
866,15.0434282899214
867,13.6468429419874
868,12.4517247814678
869,11.4440810860906
870,10.6216395552841
871,9.97526725130606
872,9.48620006992852
873,9.15748805387725
874,8.99496770901055
875,8.993154010803
876,9.14346940752141
877,9.43848130249849
878,9.8708037004589
879,10.4322746476458
880,11.116770369989
881,11.9184961813923
882,12.8396499368741
883,13.8767423357883
884,15.0276087002065
885,16.2750117372764
886,17.6089113320677
887,19.0255383618953
888,20.5045379124757
889,22.054168257609
890,23.6647621605988
891,25.336036870486
892,27.05779749071
893,28.8284417134331
894,30.6389264872159
895,32.4781736561788
896,34.3242671276706
897,36.1809429606837
898,38.0642999147413
899,39.9582211221444
900,41.8472934255
901,43.7455984096779
902,45.6411029092397
903,47.5336877995529
904,49.4264338910868
905,51.3116800287397
906,53.1668339336431
907,54.9971818413974
908,56.7940156719713
909,58.5705162730536
910,60.3045024951218
911,61.9801424182413
912,63.6113573923254
913,65.211536580074
914,66.7812010812168
915,68.3057689988809
916,69.7645983112628
917,71.1510289291863
918,72.4736834520229
919,73.732949100175
920,74.9382077081763
921,76.0910058221086
922,77.1774633028926
923,78.1934364152641
924,79.1715758602742
925,80.0950246141243
926,80.9427751868431
927,81.708653836952
928,82.4060227548559
929,83.0618582597449
930,83.669240896836
931,84.2272141169258
932,84.74574834754
933,85.2112622476939
934,85.6108949567079
935,85.9802123445376
936,86.3234328236546
937,86.6112511322942
938,86.8549167636234
939,87.0619083710702
940,87.235369781767
941,87.366869629506
942,87.4597098509947
943,87.5340036881685
944,87.5844378420404
945,87.6048190120475
946,87.6162503118091
947,87.613893008125
948,87.5772564637476
949,87.5162640191157
950,87.4522379898981
951,87.3753830514383
952,87.2907749379144
953,87.2108510205168
954,87.1433353089898
955,87.063065449508
956,86.9610022544422
957,86.8436600677242
958,86.710459675887
959,86.5701755276326
960,86.4259936804981
961,86.2826194437724
962,86.1451338440363
963,86.0021258219113
964,85.8614420432646
965,85.7251708159094
966,85.584593059597
967,85.4317957774399
968,85.2841561207227
969,85.1458358505874
970,85.0034485346947
971,84.8607659776323
972,84.7252839594652
973,84.5979864120659
974,84.4673880664815
975,84.332003397286
976,84.1941816636619
977,84.0501850525314
978,83.8965140160412
979,83.7423793742961
980,83.5909468143807
981,83.4339686748744
982,83.2688910332518
983,83.1105673359528
984,82.9536414410912
985,82.7917896295594
986,82.6327133321618
987,82.4818770270523
988,82.3342945131907
989,82.1893301202956
990,82.0521935477005
991,81.9187829065914
992,81.7840637960819
993,81.6535768679596
994,81.5430336241755
995,81.4488484415619
996,81.3607559584963
997,81.2778837498046
998,81.2026079498574
999,81.1325215258031
1000,81.0678484021109
1001,81.0128616900097
1002,80.969718882665
1003,80.9366829095315
1004,80.9141891582741
1005,80.9046354920287
1006,80.9047953855369
1007,80.9045515957301
1008,80.9104220878711
1009,80.9303447603435
1010,80.9623887886658
1011,81.0011449261438
1012,81.0475408400442
1013,81.1061494838754
1014,81.1744913355333
1015,81.2487574892925
1016,81.3317030845733
1017,81.4281389084195
1018,81.5367906185674
1019,81.6566792958465
1020,81.7900230168841
1021,81.9332403617712
1022,82.082130212109
1023,82.237465934912
1024,82.3999037192198
1025,82.5672880008966
1026,82.7342128228607
1027,82.902887218387
1028,83.0763156679862
1029,83.2512125312738
1030,83.4180844293912
1031,83.5743573754979
1032,83.7244625173465
1033,83.8692872004615
1034,84.0089584683781
1035,84.1472595967938
1036,84.2827278450369
1037,84.4138469700084
1038,84.5418112053803
1039,84.6650178635615
1040,84.7827642092776
1041,84.8946309514822
1042,85.000221671257
1043,85.1029499207782
1044,85.2018452959123
1045,85.2924450821392
1046,85.3717999738442
1047,85.4394745597916
1048,85.4929501898975
1049,85.5349248128375
1050,85.5637606501529
1051,85.5801590817922
1052,85.5876882779626
1053,85.5822103059459
1054,85.5660560069385
1055,85.5440408029984
1056,85.5173911264293
1057,85.4807185795381
1058,85.4387060519839
1059,85.3963752767767
1060,85.3549243144448
1061,85.3155437728996
1062,85.2758389291968
1063,85.235073749166
1064,85.1911961414446
1065,85.1444792796624
1066,85.1026826729234
1067,85.062492238882
1068,85.0249905900374
1069,84.9881352822962
1070,84.9594634121219
1071,84.9375976277952
1072,84.9172035145923
1073,84.903010899993
1074,84.8966121596051
1075,84.9010007929646
1076,84.9186150866923
1077,84.9485813022338
1078,84.9899347314638
1079,85.0396803606011
1080,85.0987058609268
1081,85.1660995533549
1082,85.2465530007902
1083,85.3341775169757
1084,85.4354916096159
1085,85.5474575284091
1086,85.6620754911672
1087,85.7799333409533
1088,85.9015755790295
1089,86.0238889545845
1090,86.1469879373066
1091,86.2736176933328
1092,86.4026183515155
1093,86.5330216947307
1094,86.6633618170281
1095,86.7930292079162
1096,86.9214765143916
1097,87.0368265869522
1098,87.1474520042819
1099,87.2582378890425
1100,87.3640348627114
1101,87.4602654311293
1102,87.5513147554105
1103,87.6410729393669
1104,87.7244700619
1105,87.7990455189041
1106,87.8719159671309
1107,87.9420615407212
1108,87.9991376734062
1109,88.0516870441647
1110,88.1094438624158
1111,88.1666204835563
1112,88.2184858975191
1113,88.266882857048
1114,88.3236651348176
1115,88.3824878972069
1116,88.4346003862783
1117,88.4841633099637
1118,88.5376104458244
1119,88.5872718284567
1120,88.6374027529539
1121,88.6944624731386
1122,88.753311417234
1123,88.8016012454335
1124,88.8454040385371
1125,88.8921744049621
1126,88.9404887230495
1127,88.9756792479977
1128,89.0077320155772
1129,89.043135761091
1130,89.0821872494091
1131,89.1136020277936
1132,89.1407293033202
1133,89.1634013808564
1134,89.1798293356522
1135,89.1892450478301
1136,89.1996269459757
1137,89.2119903997564
1138,89.2177935171775
1139,89.2179969468388
1140,89.2243908513669
1141,89.2315244550497
1142,89.2342231635598
1143,89.2338126291413
1144,89.2387655081138
1145,89.2432552033962
1146,89.2443554228093
1147,89.2443375891293
1148,89.2488366023532
1149,89.2517782787175
1150,89.2508619307033
1151,89.2526103740962
1152,89.2581645529447
1153,89.2615806290434
1154,89.2585287061121
1155,89.2512838335682
1156,89.2362600447636
1157,89.2138400385093
1158,89.1923704649068
1159,89.1749017318301
1160,89.1581783032248
1161,89.1407209569164
1162,89.1269653699645
1163,89.113121943738
1164,89.0982306016567
1165,89.0784534227443
1166,89.0546896972348
1167,89.0344593913764
1168,89.015006139773
1169,89.0006646816433
1170,88.986880920964
1171,88.9687509817504
1172,88.9497222276438
1173,88.9290948124337
1174,88.9003894475029
1175,88.8639578630697
1176,88.8240229942129
1177,88.778859989559
1178,88.728300094592
1179,88.6731320997606
1180,88.617399229621
1181,88.5606197462492
1182,88.496442416006
1183,88.4271346775672
1184,88.3551492455448
1185,88.2738033564464
1186,88.1862498695052
1187,88.0964094719957
1188,88.0013762265521
1189,87.8980478572693
1190,87.7922143918015
1191,87.6876464715215
1192,87.580905592096
1193,87.4626306250588
1194,87.3341690051104
1195,87.2035642231487
1196,87.0689064436297
1197,86.9257538475156
1198,86.7729619146443
1199,86.614924411703
1200,86.4505832649947
1201,86.2825720623718
1202,86.1130411970608
1203,85.9387204815848
1204,85.7546828486962
1205,85.5629707808751
1206,85.371030256154
1207,85.1804349157959
1208,84.9878346813705
1209,84.7957043205086
1210,84.607666840604
1211,84.4259316012869
1212,84.2494960567641
1213,84.0791694568178
1214,83.9155245562234
1215,83.7563549158311
1216,83.6082182902702
1217,83.4769563172963
1218,83.3601979845962
1219,83.2528555308693
1220,83.1560705477068
1221,83.070994690229
1222,82.9964454928831
1223,82.9370766973103
1224,82.8930762700834
1225,82.8652935341959
1226,82.852118733074
1227,82.8538038584027
1228,82.8701062359447
1229,82.8954169058282
1230,82.9267966631212
1231,82.9703188213786
1232,83.0289374225329
1233,83.0977001270839
1234,83.176485869481
1235,83.2638370629756
1236,83.3507238098753
1237,83.4391466705999
1238,83.5318846877948
1239,83.6242014576563
1240,83.7136967271767
1241,83.8001711535641
1242,83.8870921216067
1243,83.9735563911379
1244,84.0529201492673
1245,84.1268098457109
1246,84.1973051914813
1247,84.2637951771437
1248,84.3273895794362
1249,84.3921901402516
1250,84.4552731536746
1251,84.5131756810692
1252,84.5713107540568
1253,84.633414897082
1254,84.697791423799
1255,84.7604158303688
1256,84.8194394913381
1257,84.8791596716178
1258,84.9387041634342
1259,84.9997574895212
1260,85.0612973475185
1261,85.1258087190335
1262,85.191347015205
1263,85.2546941818229
1264,85.3144096582275
1265,85.3719285409936
1266,85.4253125049078
1267,85.4740921909555
1268,85.5209524165413
1269,85.5677245595238
1270,85.6099918257181
1271,85.6487253997734
1272,85.6823449266935
1273,85.7122704450665
1274,85.734493928084
1275,85.7467292887965
1276,85.7567898457412
1277,85.7663646597529
1278,85.7709228432186
1279,85.7678234360414
1280,85.7587091972638
1281,85.7469148181326
1282,85.7314488940131
1283,85.7125511140349
1284,85.6894206129684
1285,85.6609690556976
1286,85.6238840733781
1287,85.5841569886091
1288,85.5441482752988
1289,85.496449954644
1290,85.4408711799058
1291,85.3839620627598
1292,85.326930438686
1293,85.2657736196254
1294,85.1963332027999
1295,85.1207807956529
1296,85.0421984428524
1297,84.957141215482
1298,84.8662315721524
1299,84.7723740663228
1300,84.6707526636334
1301,84.5626582101892
1302,84.4551458339545
1303,84.3415804792346
1304,84.2164802970433
1305,84.0802240845139
1306,83.9380103459161
1307,83.7883344484471
1308,83.6306389730328
1309,83.4648590298777
1310,83.2909038762606
1311,83.1089839956998
1312,82.9163261105165
1313,82.7114323589463
1314,82.4949474588955
1315,82.2647388692829
1316,82.0215748864344
1317,81.7690295937193
1318,81.5056884124323
1319,81.229663096013
1320,80.9397656667242
1321,80.6344921084614
1322,80.3153935928726
1323,79.9823302287011
1324,79.6316974217099
1325,79.2659465358242
1326,78.8870279217679
1327,78.4921406530679
1328,78.0792545312661
1329,77.6522852911048
1330,77.2083836799633
1331,76.7471466053598
1332,76.2661266509667
1333,75.7716882082844
1334,75.2631363027025
1335,74.7356855893384
1336,74.1912265725688
1337,73.6338335831758
1338,73.0632678786185
1339,72.4729716494791
1340,71.864553771785
1341,71.2422030341054
1342,70.6014591836636
1343,69.9419461465875
1344,69.269476523011
1345,68.5811378957956
1346,67.8714121975674
1347,67.1422405119792
1348,66.3990068225566
1349,65.6358883803612
1350,64.8483747265192
1351,64.0437194921051
1352,63.2254310053791
1353,62.3939217454454
1354,61.5444925496591
1355,60.6845677756984
1356,59.8107579943789
1357,58.9224634442434
1358,58.0242664164904
1359,57.1188114428181
1360,56.2068437699995
1361,55.286065908332
1362,54.3638081360039
1363,53.4434565874277
1364,52.5234762701925
1365,51.6039106175873
1366,50.6882163841543
1367,49.7789310511025
1368,48.8725260082222
1369,47.9748595227631
1370,47.0852690877029
1371,46.2050845867443
1372,45.3347471404386
1373,44.4747680224187
1374,43.6265436445201
1375,42.7874996373466
1376,41.9555741866099
1377,41.13231741977
1378,40.3174266386323
1379,39.51024475145
1380,38.7114002262578
1381,37.9237102588252
1382,37.1462433620357
1383,36.3777542323162
1384,35.6194710405849
1385,34.8728803631158
1386,34.1366690579188
1387,33.4130093214336
1388,32.7039371665827
1389,32.0094721396817
1390,31.3291873856661
1391,30.6659860523416
1392,30.0201660363394
1393,29.39054601114
1394,28.7770512866136
1395,28.1807105772862
1396,27.6025937068788
1397,27.0411542251627
1398,26.4980701906691
1399,25.9741218996912
1400,25.4685585449939
1401,24.9807206114752
1402,24.5127945073303
1403,24.0633250148537
1404,23.630809233397
1405,23.2164713596962
1406,22.8212905104629
1407,22.4447079520524
1408,22.0862040947239
1409,21.7462229487415
1410,21.4243497842247
1411,21.1196330591932
1412,20.8312550039964
1413,20.5593873659231
1414,20.3037451396426
1415,20.0626564114523
1416,19.8363937379493
1417,19.625549124396
1418,19.4287791822365
1419,19.2443762398064
1420,19.0719377055098
1421,18.9109570162909
1422,18.7597357899236
1423,18.6181896231149
1424,18.4860111892625
1425,18.3619217606501
1426,18.2446281247021
1427,18.1346602965307
1428,18.0316235053395
1429,17.9336586392645
1430,17.8390669797728
1431,17.7482078007525
1432,17.6598115610143
1433,17.5733362207771
1434,17.4886116471952
1435,17.4055372492812
1436,17.3218131896035
1437,17.2368753568018
1438,17.1512117854602
1439,17.0637290793403
1440,16.972478490433
1441,16.8770853486256
1442,16.7779982003537
1443,16.6745251412919
1444,16.5650503213241
1445,16.4496178575144
1446,16.3279748459058
1447,16.1990305681459
1448,16.0624164492246
1449,15.918344488677
1450,15.7662991178996
1451,15.6053566915654
1452,15.4356425810645
1453,15.2578333796253
1454,15.0710078339479
1455,14.8748668306839
1456,14.6699726257717
1457,14.4570758413187
1458,14.236182911411
1459,14.0069747456742
1460,13.7698219668667
1461,13.5251444551615
1462,13.2732937730004
1463,13.0147429253007
1464,12.7503425151467
1465,12.4805487832508
1466,12.2055864717673
1467,11.9267422278011
1468,11.6448378088219
1469,11.3601827027518
1470,11.0735301958035
1471,10.7854674190471
1472,10.4967934576754
1473,10.2085616475115
1474,9.92167844016418
1475,9.63687528400008
1476,9.35478309441071
1477,9.07598664943898
1478,8.80139486891369
1479,8.53116793339408
1480,8.26554112011492
1481,8.00512067531113
1482,7.7503376056159
1483,7.50139540923656
1484,7.25885704300948
1485,7.02297541944372
1486,6.79366331785518
1487,6.57123635115761
1488,6.35600497131264
1489,6.14802293586993
1490,5.94707353181036
1491,5.75331633861546
1492,5.56733444233268
1493,5.38904649464898
1494,5.21822540508385
1495,5.05500762416867
1496,4.89952660633019
1497,4.75175646573116
1498,4.61157941476688
1499,4.47884318022487
1500,4.35343087272708
1501,4.23523554338188
1502,4.12427265578339
1503,4.02071762131206
1504,3.92432542005532
1505,3.83475120943404
1506,3.75199963546901
1507,3.67603349487593
1508,3.60662400575932
1509,3.54363590908163
1510,3.4868568071101
1511,3.43643575256358
1512,3.39227184471702
1513,3.35434513631805
1514,3.3223853926818
1515,3.2961117426885
1516,3.27543281481878
1517,3.26042048692418
1518,3.25109643955783
1519,3.2472142531647
1520,3.24882344973274
1521,3.2560201763133
1522,3.26863033460358
1523,3.2865366357786
1524,3.3097827807975
1525,3.33833769679763
1526,3.37204562751833
1527,3.41120270837624
1528,3.45596767968662
1529,3.506362660247
1530,3.56231912916481
1531,3.62397346012607
1532,3.69149168357913
1533,3.76480327048643
1534,3.84370734937216
1535,3.9288696555896
1536,4.02030024333015
1537,4.11765912490636
1538,4.22121509950359
1539,4.33111713906447
1540,4.44723529096929
1541,4.56959429465709
1542,4.69845032328977
1543,4.83357141719832
1544,4.97478520456226
1545,5.12227534815286
1546,5.27624540118356
1547,5.43660644152883
1548,5.60256455160143
1549,5.77443751712656
1550,5.95268749266562
1551,6.13669180454051
1552,6.32618618586029
1553,6.52141576234283
1554,6.72187577749364
1555,6.92734182800634
1556,7.13843863041363
1557,7.35521958142973
1558,7.57708347628405
1559,7.80383470376908
1560,8.03566108337779
1561,8.27269634407447
1562,8.51393959033275
1563,8.75933216205705
1564,9.01019370552022
1565,9.26602375135666
1566,9.52571511509109
1567,9.79035185173272
1568,10.0596726714383
1569,10.3326883256377
1570,10.609473399466
1571,10.8902985959257
1572,11.1752196653362
1573,11.4646381798644
1574,11.758333080308
1575,12.0586655442009
1576,12.3638962795232
1577,12.6733092983721
1578,12.9880559298982
1579,13.3097252536526
1580,13.6360243922349
1581,13.967848663616
1582,14.3060719587904
1583,14.6504437907451
1584,15.0002175798697
1585,15.3548061886321
1586,15.7157903820205
1587,16.0826548620922
1588,16.4526159254454
1589,16.8280180632781
1590,17.209832228101
1591,17.5953964346888
1592,17.985648646422
1593,18.3819905735705
1594,18.7829440862302
1595,19.1881904684255
1596,19.5980772412266
1597,20.0140238411943
1598,20.4350453088682
1599,20.8586614019501
1600,21.2863808491192
1601,21.7198752199047
1602,22.1543151825132
1603,22.5910887551912
1604,23.0318455190426
1605,23.4740007370132
1606,23.9156738506096
1607,24.3587452790641
1608,24.8026603060426
1609,25.24666142117
1610,25.6887135346438
1611,26.1300831633452
1612,26.5716960744931
1613,27.01065129657
1614,27.4483485823437
1615,27.8864612804559
1616,28.3226757924238
1617,28.7553108243077
1618,29.1887014348713
1619,29.6229190801871
1620,30.0555305380669
1621,30.4863639986188
1622,30.9174825795516
1623,31.3498461667942
1624,31.7808138420367
1625,32.2100137794933
1626,32.6386911916611
1627,33.0672703417527
1628,33.494156803109
1629,33.9202561692604
1630,34.3460346856689
1631,34.7693805295728
1632,35.1886669844465
1633,35.6059106444526
1634,36.0227134063956
1635,36.4394750969089
1636,36.8544334275355
1637,37.2688431341968
1638,37.6847361040814
1639,38.1008716284432
1640,38.5155339371903
1641,38.9293055873695
1642,39.3427914384603
1643,39.7545378898178
1644,40.1663151820635
1645,40.5814650470655
1646,40.9965174022916
1647,41.407529756931
1648,41.815077973655
1649,42.2224770677728
1650,42.6282253640122
1651,43.0310093724425
1652,43.4340248053745
1653,43.8366910920416
1654,44.2376704355821
1655,44.6384505665437
1656,45.0383829381703
1657,45.4357193978508
1658,45.8313046050435
1659,46.2288359740832
1660,46.628043172875
1661,47.0256353817398
1662,47.4228174058669
1663,47.8199939971568
1664,48.2137267079413
1665,48.6021266711036
1666,48.9853426272884
1667,49.3657895175219
1668,49.7437223779701
1669,50.1187096109676
1670,50.4907520331346
1671,50.8565060164078
1672,51.2120934617227
1673,51.5620815328822
1674,51.9091834739951
1675,52.2486475573199
1676,52.5784632402461
1677,52.9043272139107
1678,53.2298276968964
1679,53.5535114806513
1680,53.8715582715359
1681,54.1857770531356
1682,54.4979277329831
1683,54.8063180537261
1684,55.111697671367
1685,55.4184827253692
1686,55.7229190256656
1687,56.0234513739502
1688,56.3231381623903
1689,56.6234634578393
1690,56.9221521153004
1691,57.2146475119083
1692,57.5016223099202
1693,57.7878908740029
1694,58.0697229923412
1695,58.3415761709003
1696,58.6045332915399
1697,58.8573312105279
1698,59.0938753658446
1699,59.3181994321758
1700,59.5292879064144
1701,59.7215213941727
1702,59.890850377147
1703,60.0368990545995
1704,60.1591468328057
1705,60.2573056452572
1706,60.3285036398996
1707,60.3699982045021
1708,60.3863644546822
1709,60.3811548648533
1710,60.3532395598059
1711,60.3092839397626
1712,60.250465736654
1713,60.1786946434984
1714,60.1033227491413
1715,60.0334151614167
1716,59.9736347723581
1717,59.9264520806447
1718,59.8913085837675
1719,59.8764313673496
1720,59.8913278841328
1721,59.9378503808145
1722,60.0172472224994
1723,60.1343171314866
1724,60.2851446168479
1725,60.4697439597864
1726,60.6889801146227
1727,60.9382549279524
1728,61.2124976447247
1729,61.5085030052256
1730,61.8249676430082
1731,62.1579496490729
1732,62.5025171034108
1733,62.8485060785533
1734,63.193040513896
1735,63.5331442969203
1736,63.860262848081
1737,64.172014532738
1738,64.4693801770899
1739,64.7513703205597
1740,65.0118531092487
1741,65.2448879629515
1742,65.4556533088456
1743,65.6412746467653
1744,65.8047959505665
1745,65.9478241502472
1746,66.0706285038192
1747,66.1732243298547
1748,66.2520846227466
1749,66.3138521924496
1750,66.3618736331904
1751,66.3874850790642
1752,66.3941216517892
1753,66.3865691274017
1754,66.3698558900957
1755,66.3411115215748
1756,66.2982073340224
1757,66.2461000792101
1758,66.1781250865464
1759,66.0978113802786
1760,66.0079696005153
1761,65.9155914485529
1762,65.8168888851195
1763,65.7068780800299
1764,65.5921324956096
1765,65.4702517104214
1766,65.3403500612042
1767,65.1981832901884
1768,65.0489181858887
1769,64.8953071778208
1770,64.7296685006105
1771,64.5593820142724
1772,64.3828178544924
1773,64.1928841079679
1774,63.9838666810764
1775,63.7609980109908
1776,63.5256276811812
1777,63.2761416650948
1778,63.0116935108182
1779,62.7371722115039
1780,62.4539271163525
1781,62.1550428447941
1782,61.8425036638134
1783,61.5219283259168
1784,61.1863202995002
1785,60.835830188511
1786,60.4800784389031
1787,60.1243842353478
1788,59.7621960154615
1789,59.3916192057596
1790,59.0139030320723
1791,58.6268905215086
1792,58.2311402022029
1793,57.8235964138077
1794,57.4128463965458
1795,56.9990399633865
1796,56.5768781511602
1797,56.1492588424038
1798,55.7216600713262
1799,55.2852167901567
1800,54.8416366666305
