# OperatorName = Michael Matus
# Modification = Created as New Dataset
# ModificationDateTime = thu oct 27 06:07:36 2022 Coordinated Universal Time (GMT+0:00)
# Parameters = 
# SampleDescription = RAL5009, 05674, April 1968
# InstrumentModel = Lambda 1050+
# InstrumentSerialNumber = 1060L2011032
# InstrumentSoftwareRevision = PerkinElmer UV WinLab 7.1.0.68 / 2.02.11 Lambda 900 UV/VIS/NIR, May 23 2018 11:23:04
# SlitWidth = 3350/servo 860.8/1
# LampsUsed = UV/VIS
# InstrumentAccessories = CommonBeamDepol,RBeamAtt,SBeamAtt,150mm sphere / downward view, WB InGaAs Detector
# UvVisSlitMode = Program
# NirSlitMode = 
# UvVisIntegrationTime = 3350/0.2 860.8/0.2
# SampleBeamPosition = Front
# CommonBeamDepolarizer = off
# AttenuatorsUsed = S:100 R:100
# DataSetChecksum = 0
# DataSetDataType = 16
# DataSetName = Sample1.Sample
# DataSetAbscissaRange = 350 850
# DataSetOrdinateRange = 0 53.0131103457593
# DataSetInterval = -1
# DataSetNumPoints = 501
# DataSetXAxisLabel = nm
# DataSetXAxisUnitType = 11
# DataSetYAxisLabel = %R
# DataSetYAxisUnitType = 3
# DataSetSamplingMethod = 0
# DataSetFileType = 0
# DataSetAlias = Sample1.Sample
# SourceFile = Reflection1.sp
nm,%R
350,15.5291831315929
351,15.8787838966805
352,16.2302268761367
353,16.6600952580225
354,17.1530293599668
355,17.5946338336935
356,18.1566160612734
357,18.7332774303934
358,19.3470309335793
359,19.998069033211
360,20.7181910018679
361,21.4742746719011
362,22.2680132720086
363,23.1391376698444
364,23.9909322464865
365,24.8933806495512
366,25.7795057992725
367,26.664243549548
368,27.5418498396039
369,28.3912232321083
370,29.2630808496727
371,29.9856247239304
372,30.7389679174273
373,31.4645834445687
374,32.1243172381213
375,32.7242388386355
376,33.3533687007052
377,33.8678612299053
378,34.3323288977015
379,34.5719544257204
380,35.0818657243823
381,35.4254970712706
382,35.8024985667602
383,36.1469203776842
384,36.456314328933
385,36.7363187373626
386,37.0098986816986
387,37.3008768172686
388,37.593830525192
389,37.8941159855127
390,38.1873703087775
391,38.4741963082344
392,38.8101976386448
393,39.0818323983361
394,39.3859953762468
395,39.6834282814195
396,39.9646777429692
397,40.2625136334783
398,40.5613670887534
399,40.8131828670615
400,41.0937823773046
401,41.3419766958041
402,41.6133686386673
403,41.8458178258291
404,42.0599316714094
405,42.3118280976309
406,42.5320487839561
407,42.7717534029934
408,42.9829264377752
409,43.1723886034674
410,43.3796661798586
411,43.5689764979753
412,43.7540275118665
413,43.8874977319259
414,44.023052426297
415,44.1364569052116
416,44.2821905209213
417,44.4052634288872
418,44.5299716173744
419,44.6547340952058
420,44.8148430071624
421,44.9573767386965
422,45.1232421850548
423,45.3024678651738
424,45.4653164004171
425,45.6398257449202
426,45.7750600563275
427,45.8840078143117
428,45.9620740732828
429,46.080851458776
430,46.17865114516
431,46.302306415977
432,46.4199839854328
433,46.5683127333679
434,46.7426358056506
435,46.9047621623601
436,47.0544806550253
437,47.2006499656957
438,47.3570794840881
439,47.5426412562291
440,47.6876098147416
441,47.8365370167967
442,47.9545339567038
443,48.0428210354243
444,48.1561205916011
445,48.2822709302994
446,48.3933715507733
447,48.4902265430181
448,48.5763884305926
449,48.6572350840181
450,48.731613711065
451,48.8182292387148
452,48.9260698776578
453,49.0236604355483
454,49.0954180925397
455,49.1588321923762
456,49.2269686021652
457,49.3118845311584
458,49.4189604738242
459,49.5100614244557
460,49.5925824287064
461,49.7029590164129
462,49.8028262282137
463,49.8922533146741
464,49.984592131649
465,50.0616070287234
466,50.1124450728194
467,50.1500795185776
468,50.1658901323879
469,50.1580160152314
470,50.1230112819795
471,50.0745635178991
472,50.0440616374095
473,50.0045969145502
474,49.9445515360034
475,49.8821920063956
476,49.8421181207638
477,49.7993853022468
478,49.7515657486107
479,49.7254919542082
480,49.723069206421
481,49.73178587947
482,49.7232603436863
483,49.7195297883518
484,49.7288591090305
485,49.7381181927329
486,49.7398228677761
487,49.7525752632886
488,49.7656041191977
489,49.7724104724025
490,49.7639423992132
491,49.754963618676
492,49.7526439052598
493,49.7526583107512
494,49.7482418770187
495,49.7318784607937
496,49.7211285025343
497,49.7476097621376
498,49.7666666231549
499,49.7893555087465
500,49.8216099260829
501,49.8626322470522
502,49.9271687011947
503,49.9923423409831
504,50.0557044057267
505,50.140120018679
506,50.213016657388
507,50.2644201245241
508,50.2990605743717
509,50.3215021088741
510,50.3254737695736
511,50.2955152868177
512,50.2377365092603
513,50.16105962369
514,50.051084761126
515,49.9216259787703
516,49.7935509121979
517,49.6541797440364
518,49.512346581036
519,49.3653513540773
520,49.210508264216
521,49.0747382740531
522,48.9352505192906
523,48.8155304025179
524,48.6932700886109
525,48.5743722782447
526,48.4756385882246
527,48.3802812158984
528,48.2876697694627
529,48.2156720170473
530,48.1463552348744
531,48.0706701570052
532,48.0064681840581
533,47.9428429452653
534,47.8846928245527
535,47.8174835448241
536,47.7769568605099
537,47.7372088067368
538,47.6932219146415
539,47.6520120674468
540,47.5766286470079
541,47.5214239838511
542,47.4832960299885
543,47.4380608487687
544,47.3924569188076
545,47.3591419973667
546,47.2999661108116
547,47.2665220666219
548,47.2012244460301
549,47.1486079672544
550,47.0977754561328
551,47.0417481863896
552,47.0106614637537
553,46.9576160623467
554,46.9032566107012
555,46.8737335989766
556,46.8301795006279
557,46.7806389134221
558,46.7566654812727
559,46.7145709154617
560,46.6749012894888
561,46.6511393358776
562,46.5842698871571
563,46.6591991025018
564,46.6466005490631
565,46.6355362258497
566,46.6201446980698
567,46.6176501718166
568,46.5871171589022
569,46.5935932985804
570,46.5884435921369
571,46.5756539298215
572,46.5636509845766
573,46.5799273569218
574,46.5532975598394
575,46.5692614307342
576,46.5941467635119
577,46.588757990376
578,46.5904249451041
579,46.6012456723943
580,46.585225020855
581,46.5940577972549
582,46.5812390763297
583,46.6145230980165
584,46.6066323328693
585,46.6285606224246
586,46.6248113171397
587,46.6456067290605
588,46.6708701232909
589,46.6599668154256
590,46.6932105919047
591,46.6855438199678
592,46.6948833030971
593,46.7200618068621
594,46.7066121628089
595,46.7397435515046
596,46.7229337178286
597,46.7250279234765
598,46.7025398355574
599,46.7089465888427
600,46.6986458886718
601,46.7210178884209
602,46.6909995368408
603,46.7091768139481
604,46.7312386866509
605,46.7420608347054
606,46.7192408055945
607,46.7568355520366
608,46.7489886106784
609,46.7431463957904
610,46.7396373849778
611,46.7764317894953
612,46.7579922535298
613,46.7613590964111
614,46.8117848940256
615,46.8036228684441
616,46.8153406301543
617,46.8234308605733
618,46.8411226054862
619,46.834294105488
620,46.8304033308106
621,46.852686501056
622,46.8768426098125
623,46.8686408400813
624,46.9127063297256
625,46.915642425024
626,46.8982417168021
627,46.9216419426354
628,46.9332538681564
629,46.9456732630592
630,46.9431574945826
631,46.9779378821402
632,46.973069107185
633,46.9785625186351
634,46.9709202353175
635,47.0228151158812
636,47.0147377976111
637,47.0197446550374
638,47.0193392272754
639,47.0325910473852
640,47.0532298709522
641,47.0535521545518
642,47.0698098496517
643,47.0859753863801
644,47.1106617743195
645,47.0985414605947
646,47.0941227148433
647,47.1072165693187
648,47.1508672732736
649,47.1510428871661
650,47.150510037786
651,47.1698995698968
652,47.186314204709
653,47.1883391379345
654,47.2350339812233
655,47.2379814732237
656,47.2502014914514
657,47.2531073026963
658,47.2927571166321
659,47.2923956709995
660,47.2890743485456
661,47.2964966688379
662,47.313071061817
663,47.3192762328586
664,47.3300312773404
665,47.3358253897252
666,47.3326294976136
667,47.3359109986955
668,47.3415414574573
669,47.3542110022072
670,47.3669202426792
671,47.3550152923767
672,47.3576304970164
673,47.3665367379835
674,47.354867562601
675,47.361527711841
676,47.370518460818
677,47.3582018289554
678,47.3579846106716
679,47.3636972697425
680,47.3484489411611
681,47.3347501681344
682,47.3380473798137
683,47.3442953657635
684,47.326282244904
685,47.320936022758
686,47.3639028823315
687,47.3511536359343
688,47.3371509514179
689,47.3461206593542
690,47.2894620324558
691,47.218520864376
692,47.2215810659539
693,47.2286608451625
694,47.2189600217351
695,47.2240747911698
696,47.2135997283166
697,47.2196358939102
698,47.2099281531843
699,47.2140063326221
700,47.2067020749348
701,47.1988696689377
702,47.1976225650166
703,47.2018869198897
704,47.1821046433328
705,47.1649749416765
706,47.1851984760562
707,47.2075494460488
708,47.210969193165
709,47.2245872578372
710,47.2289779637134
711,47.2308392124965
712,47.2264971739149
713,47.2381330967676
714,47.2363773358138
715,47.2487285208146
716,47.2812513037496
717,47.2788544355807
718,47.2674440642916
719,47.2827644130303
720,47.3089406809545
721,47.326260402847
722,47.3297896809446
723,47.3585570003462
724,47.4127477148883
725,47.4168354255653
726,47.4237840253309
727,47.4660606093698
728,47.484122988147
729,47.471536793584
730,47.5051399847955
731,47.5532440641796
732,47.6022606772996
733,47.628617486958
734,47.6072252849978
735,47.6320812701581
736,47.7024448734792
737,47.7773333331606
738,47.7926750608265
739,47.8338223550554
740,47.8943083511207
741,47.9473054765052
742,48.0048300467527
743,48.0700465760207
744,48.1725093056187
745,48.2557210080493
746,48.3544697995172
747,48.4340268166999
748,48.5208318716787
749,48.6474280388619
750,48.7620567269871
751,48.8380776409153
752,48.9548203908326
753,49.0828411984405
754,49.1976139306481
755,49.306359029517
756,49.4483653435868
757,49.59709938754
758,49.7518087361614
759,49.9046282759357
760,50.0408926303581
761,50.15600366023
762,50.2921106605542
763,50.4435370553679
764,50.5679527028599
765,50.6684569633725
766,50.7493780375042
767,50.8092607785702
768,50.92198245355
769,51.0280078908282
770,51.1190060875053
771,51.2065055753714
772,51.2548135708476
773,51.3096485762938
774,51.4073861955652
775,51.4814741523358
776,51.5491794871817
777,51.5806852468088
778,51.6253158836947
779,51.657693311652
780,51.7143630106309
781,51.7735457261024
782,51.8125700208051
783,51.8454076700146
784,51.8449198390677
785,51.9271752212601
786,51.9391054043041
787,51.9627105320505
788,52.0185719682256
789,52.0750959727464
790,52.0620288403988
791,52.0707498809512
792,52.0916850763873
793,52.1028670294961
794,52.1382694980427
795,52.1563025732905
796,52.2122889960182
797,52.2219219228899
798,52.237969397834
799,52.256053921658
800,52.3131424920815
801,52.3295810963034
802,52.3148981309292
803,52.3990299645452
804,52.385553262087
805,52.3610537491797
806,52.3964118887086
807,52.3810770522885
808,52.4446314030688
809,52.384817976318
810,52.4014911416261
811,52.3287600553966
812,52.3299035251905
813,52.2924680531572
814,52.2859105849969
815,52.3349302852462
816,52.3475724924406
817,52.3706959750752
818,52.3474425230493
819,52.3495970785607
820,52.4423891045547
821,52.446496565734
822,52.4456951728819
823,52.4747628513762
824,52.5123604979789
825,52.5476112776133
826,52.4564470862843
827,52.4791839742106
828,52.5274441929099
829,52.6294890746521
830,52.5733714969574
831,52.5465979641093
832,52.6525638261509
833,52.6316709521434
834,52.6778245482475
835,52.5310170001201
836,52.6599464113731
837,52.7349166102014
838,52.7634575869543
839,52.7510163037264
840,52.7005361742452
841,52.7844319838487
842,52.7490106897793
843,52.9136916178106
844,52.8141277687208
845,52.9434999898997
846,53.0131103457593
847,52.9119867208717
848,52.8831085195911
849,52.7477483756002
850,52.6907223745948
