# AttenuatorsUsed = S:100 R:0.1
# CommonBeamDepolarizer = off
# DataSetAbscissaRange = 1800 220
# DataSetAlias = Sample51.test_2
# DataSetInterval = -1
# DataSetName = C:\Users\Administrator\source\repos\PerkinElmer2CSV\TestData\Sample51.test.sp
# DataSetNumPoints = 1581
# DataSetXAxisLabel = nm
# DataSetYAxisLabel = %T
# DetectorChangeAt = 1800.8 840.8
# Ignored_DataSetChecksum = 00 00 00 00
# Ignored_DataSetDataType = 10 00
# Ignored_DataSetFileType = 00 00
# Ignored_DataSetOrdinateRange = 00 00 00 00 00 00 00 00 44 22 3B B2 04 C3 56 40
# Ignored_DataSetSamplingMethod = 00 00
# Ignored_DataSetXAxisUnitType = 0B 00
# Ignored_DataSetYAxisUnitType = 02 00
# InstrumentAccessories = CommonBeamDepol,RBeamAtt,SBeamAtt,uv/vis/nir detector, TDS WB InGaAs Detector
# InstrumentModel = Lambda 1050+
# InstrumentSerialNumber = 1060L2011032
# InstrumentSoftwareRevision = PerkinElmer UV WinLab 7.1.0.68 / 2.02.11 Lambda 900 UV/VIS/NIR, May 23 2018 11:23:04
# LampsUsed = UV/VIS
# Modification = Created as New Dataset
# ModificationDateTime = thu jul 21 11:17:53 2022 Coordinated Universal Time (GMT+0:00)
# NirDetectorGain = 3350/1.00 1800.8/1.00
# NirIntegrationTime = 3350/0.2 1800.8/0.2 840.8/1
# NirSlitMode = Program
# NirSlitWidth = 3350/servo 1800.8/servo 840.8/1
# OperatorName = Michael Matus
# Parameters = 
# SampleBeamPosition = Front
# SampleDescription = MM04 BG20 535341 d=2.0 mm Q50mm
# SlitWidth = 3350/servo 1800.8/servo 840.8/1
# UvVisIntegrationTime = 3350/0.2 1800.8/0.2 840.8/1
# UvVisSlitMode = Program
nm,%T
220,3.269379792050488E-05
221,3.320593262200653E-05
222,3.370467486670148E-05
223,3.410585174647528E-05
224,3.4409646867083284E-05
225,3.464103170339183E-05
226,3.474184490100823E-05
227,3.4809643750652996E-05
228,3.483549605485395E-05
229,3.4786415425495756E-05
230,3.464145396745572E-05
231,3.4313355971465936E-05
232,3.38309214319262E-05
233,3.325312362103855E-05
234,3.2637989291040465E-05
235,3.199522725314258E-05
236,3.131491709698055E-05
237,3.058180582885434E-05
238,2.9853374569594566E-05
239,2.9333483552199633E-05
240,2.9217598713909686E-05
241,3.053323478392772E-05
242,3.760179358240547E-05
243,6.385515698941725E-05
244,0.00014338208120628004
245,0.00034861550216516046
246,0.0008099081805001585
247,0.0017176597571632035
248,0.0033182760219861948
249,0.005921317622249758
250,0.009952409863496195
251,0.01613453236949031
252,0.025620267343669612
253,0.039970721548016286
254,0.06098664472531545
255,0.0906800279782901
256,0.13128715091398674
257,0.18514601784586654
258,0.25467949724668987
259,0.34252611237397773
260,0.45154159233656904
261,0.5844541211258286
262,0.7441479643489185
263,0.933729071854063
264,1.1558675842282522
265,1.4124179289847139
266,1.7045229641509059
267,2.033357969788273
268,2.3996637297639904
269,2.8037195531093824
270,3.245545263251174
271,3.725361972727674
272,4.242974229270794
273,4.797179357295501
274,5.387074636762647
275,6.01085569275228
276,6.664746212492062
277,7.343877647422067
278,8.040862751508595
279,8.745320756900535
280,9.446837624109332
281,10.140537518111218
282,10.825821091298268
283,11.505577836922178
284,12.182763707829597
285,12.859917878790405
286,13.539004264529062
287,14.213032527801369
288,14.86651037667708
289,15.483085532005303
290,16.055579670834515
291,16.593514027384114
292,17.11734762278833
293,17.643817698538122
294,18.179107593481913
295,18.72762731017133
296,19.29153197749094
297,19.869184669979497
298,20.455843003215683
299,21.0495066173048
300,21.668447015264306
301,22.344764473168688
302,23.113600961086632
303,23.988477422238685
304,24.960931527859476
305,26.016205370909173
306,27.14447522394917
307,28.336387745267814
308,29.56971200010925
309,30.818263749485542
310,32.05266528453255
311,33.243831171912525
312,34.35328302945659
313,35.334170455905586
314,36.138634817488835
315,36.72546744225514
316,37.06238307673278
317,37.13944843218463
318,36.946089155756475
319,36.47777474636915
320,35.73780874495576
321,34.74927266272025
322,33.54284570945328
323,32.182104518765605
324,30.74282949366794
325,29.30859376150711
326,27.96632873685997
327,26.790295341254023
328,25.837421672836008
329,25.14172835732925
330,24.72149241659254
331,24.588800217179365
332,24.742807292820178
333,25.1666371543162
334,25.79813226292818
335,26.525984424217736
336,27.22968281914617
337,27.81507079211167
338,28.203831548442544
339,28.324558778978428
340,28.123258252471885
341,27.572399461299636
342,26.664958218941475
343,25.39968019070805
344,23.77402306396924
345,21.803891480113386
346,19.523229721894413
347,17.04756412008995
348,14.56856042867867
349,12.220538625622101
350,10.077980831767142
351,8.21614218045812
352,6.725923918229734
353,5.701367898853859
354,5.224482225148974
355,5.37269155632311
356,6.214415320648417
357,7.7955372563781955
358,10.138634107686935
359,13.23349061436687
360,17.019953992145755
361,21.425763279816657
362,26.400588367774716
363,31.87311642042059
364,37.73137537967007
365,43.83691723807731
366,50.034548876768085
367,56.113869564391756
368,61.885291262341276
369,67.22062306624751
370,72.03648628437769
371,76.26473875939922
372,79.87841018543354
373,82.89635526124654
374,85.30676627157644
375,87.11474566309487
376,88.37695234475555
377,89.1403082163972
378,89.44781922564974
379,89.35840550100457
380,89.1126272553296
381,88.79771207569397
382,88.46409705824674
383,88.16575076994211
384,87.95686032364975
385,87.85683940779089
386,87.81428483388717
387,87.82889875683057
388,87.87225315102512
389,87.92866983733992
390,87.99546892194907
391,88.06412172335098
392,88.12812775906957
393,88.13387002875069
394,88.07785134292938
395,87.97840283399898
396,87.8299025846007
397,87.61934358246948
398,87.36240322868565
399,87.07933264357818
400,86.80039134455215
401,86.54708764736759
402,86.3417345649722
403,86.21198578392215
404,86.1732010061472
405,86.20124532769341
406,86.26877959724389
407,86.35845966705821
408,86.44578904202075
409,86.50820068178062
410,86.52939219556521
411,86.48371770761523
412,86.36912665838712
413,86.17327954624444
414,85.89935111575062
415,85.54797969208153
416,85.07578022193367
417,84.34814673098295
418,83.2671440911243
419,81.8318198295305
420,80.08711183329945
421,78.06911103853324
422,75.79832564907971
423,73.28144217737167
424,70.52088522099737
425,67.47262479470051
426,64.10731223477401
427,60.37747008864898
428,56.25354322649198
429,51.84488796023305
430,47.47704589094987
431,43.361640577732786
432,39.47757070910147
433,35.752362897117465
434,32.14888456219619
435,28.66988929735702
436,25.350073236626
437,22.246080652019984
438,19.435861165345287
439,16.98813529453734
440,14.96384003711797
441,13.38809641966726
442,12.19438337117628
443,11.246236204344275
444,10.473216653633681
445,9.88970947660606
446,9.522360771493272
447,9.378050637455008
448,9.443304854950455
449,9.6869572791227
450,10.06456534215172
451,10.525118667669346
452,11.02043293813669
453,11.50922167187245
454,11.956511880133704
455,12.335632948729309
456,12.628496664725406
457,12.824429571905293
458,12.918885174778714
459,12.910661615363813
460,12.802233608345295
461,12.601938617116389
462,12.324330551277676
463,11.989970359203099
464,11.621656296971812
465,11.242522147020605
466,10.874926478202193
467,10.539871714867036
468,10.252719264304899
469,10.020045935836192
470,9.845765070587257
471,9.73848394525463
472,9.714474238134047
473,9.796131423283757
474,10.004758127700994
475,10.356864305629658
476,10.867284799211765
477,11.55268638438787
478,12.427681394795165
479,13.501293692496082
480,14.781337313131683
481,16.279889887670905
482,18.011366298420814
483,19.982218767892217
484,22.17787579020114
485,24.558023958236884
486,27.058420108667043
487,29.60182639115646
488,32.106109447966176
489,34.488969962177485
490,36.667491829721705
491,38.565049455241564
492,40.113825431025546
493,41.251219366929085
494,41.92719546072063
495,42.10743807552229
496,41.7729455373033
497,40.92949412883483
498,39.60647086124372
499,37.8575441080493
500,35.74991072564574
501,33.357155318489845
502,30.757682876747683
503,28.029937672362422
504,25.248750638346834
505,22.490808719070156
506,19.82525260497168
507,17.30899375727492
508,14.986450899152052
509,12.887688817308511
510,11.0283006203957
511,9.41197179757419
512,8.032182904621472
513,6.875339658907307
514,5.921453412878215
515,5.145049388033698
516,4.51749380763856
517,4.008702954012274
518,3.5901748686110593
519,3.242034253293261
520,2.956917398189651
521,2.7443168793125707
522,2.628071380001386
523,2.637268896704119
524,2.7998888213348176
525,3.143337258611712
526,3.698619047539071
527,4.4996185093234855
528,5.584695371718484
529,6.993742473910703
530,8.76288914517361
531,10.919012453291522
532,13.471266503446511
533,16.40761667286597
534,19.694543207188573
535,23.286153325656592
536,27.12821962069859
537,31.1618182095229
538,35.32981183781477
539,39.56772963795522
540,43.80802931141306
541,47.975604684994934
542,51.99727665926132
543,55.801068311697755
544,59.32126583385514
545,62.51258738389807
546,65.34395075373978
547,67.80015280469726
548,69.8629382787067
549,71.52186802800927
550,72.76569778435652
551,73.58318846175754
552,73.96581666579546
553,73.89362901941526
554,73.33234231661335
555,72.2424028832369
556,70.61049007777424
557,68.4474788116475
558,65.77581967597759
559,62.6240297558143
560,59.02167213981488
561,55.01334572642659
562,50.649122963010086
563,46.01477257448064
564,41.16521084091798
565,36.1899102521735
566,31.21840240331
567,26.405395455524186
568,21.90463593677993
569,17.81445011255242
570,14.175786936868187
571,10.9928354457236
572,8.264143993228904
573,5.982676398758085
574,4.131377798131
575,2.683475220766526
576,1.6028610330672952
577,0.8588329985912849
578,0.4004988869871137
579,0.15831458647009225
580,0.05426626922235181
581,0.018205701869538356
582,0.007278513097924363
583,0.0052125998867209615
584,0.010357340253263606
585,0.02388360750167146
586,0.049829020640846426
587,0.09568049710672905
588,0.17207941266591997
589,0.2937916026051002
590,0.4800557035543259
591,0.755419495431811
592,1.151362664765892
593,1.7046174331260227
594,2.454085343349715
595,3.443262682615792
596,4.715526574857924
597,6.312446937375803
598,8.271909889535031
599,10.619206638302483
600,13.370925987252841
601,16.53124169014571
602,20.089445034521606
603,24.015771279414135
604,28.263870253596398
605,32.775105110066676
606,37.47191046441001
607,42.26872351211168
608,47.0571459247123
609,51.72810167952514
610,56.1673122398899
611,60.26729134957159
612,63.95997826444947
613,67.18517108882179
614,69.89653748842717
615,72.06921329033317
616,73.71572677902506
617,74.86286013660363
618,75.53865647005061
619,75.80661990225703
620,75.7288858710828
621,75.40862823314139
622,74.94100867431787
623,74.43594361119793
624,73.98141357693304
625,73.62287647427169
626,73.40106825276655
627,73.36866535661075
628,73.54545818207906
629,73.92517196057642
630,74.49923205668425
631,75.25058889848674
632,76.15020651328891
633,77.18277270274598
634,78.29314210899526
635,79.45102617963614
636,80.60585771770917
637,81.73257719165234
638,82.82235687042171
639,83.8601217584055
640,84.82360768080899
641,85.71164575377686
642,86.52809896949168
643,87.27691760025118
644,87.9536355024902
645,88.5691167867995
646,89.11296393983561
647,89.58692500159461
648,89.99361998439583
649,90.33654145827514
650,90.62188873988218
651,90.83120205908308
652,90.97984655208951
653,91.04716163420477
654,91.011767608345
655,90.86614077905375
656,90.58370135993916
657,90.1546285714638
658,89.56942810420496
659,88.80287140767695
660,87.84429218002182
661,86.67116899804654
662,85.26934708223044
663,83.62639022704137
664,81.73210017112903
665,79.5842458500271
666,77.20326282891722
667,74.60401571294474
668,71.81622129363544
669,68.87877497567663
670,65.83175167341581
671,62.722913116014404
672,59.62489310448383
673,56.60532678609213
674,53.73486906959148
675,51.07367893442653
676,48.67417566711243
677,46.59336033726816
678,44.87362584855962
679,43.54627608144464
680,42.64168692948127
681,42.177702601111996
682,42.16253113441796
683,42.58968040713434
684,43.43390928741271
685,44.64919694788332
686,46.17942099969448
687,47.97281197969782
688,49.98337403677287
689,52.168244491743884
690,54.47842990906446
691,56.871874389582445
692,59.31697562724413
693,61.76397824722998
694,64.16747445993343
695,66.49568256875621
696,68.719223751901
697,70.8139490914541
698,72.76989005735848
699,74.58105231628466
700,76.23568332372196
701,77.73048929845653
702,79.0591832770883
703,80.20988995760231
704,81.17492943368839
705,81.9462053553373
706,82.53104531783335
707,82.93225994630164
708,83.13644214712589
709,83.1417954680766
710,82.94532450248754
711,82.53317631998695
712,81.88997310396886
713,80.99145060226347
714,79.80451175192175
715,78.30013113584913
716,76.44305309512067
717,74.1999853166568
718,71.55417855325284
719,68.49427862636348
720,65.0331572325202
721,61.20817174121863
722,57.055610361746346
723,52.61858275058399
724,47.95362834327592
725,43.132080413394455
726,38.23382391492163
727,33.35318195601558
728,28.595533073831614
729,24.070484454085168
730,19.880128391010714
731,16.096343363498466
732,12.758824209293056
733,9.867017757183165
734,7.411391297953643
735,5.377606889811743
736,3.741702021881132
737,2.472728394684164
738,1.5327322001403605
739,0.8785173682147378
740,0.45875404302515144
741,0.2165319212409365
742,0.09443749495056344
743,0.041005496035754645
744,0.020252632130792293
745,0.014344476188271386
746,0.019489261027423436
747,0.03446682633485412
748,0.06187071398283588
749,0.10837862663204402
750,0.18258046139700143
751,0.2951012651914517
752,0.45905839073022464
753,0.691423485520549
754,1.0131443602435932
755,1.447122988347413
756,2.0182171473431563
757,2.7507186055216035
758,3.665810153227512
759,4.779927529733948
760,6.100658135825248
761,7.627031918690116
762,9.348841797527108
763,11.244303912797344
764,13.282108686577585
765,15.420288036490412
766,17.604405101079465
767,19.77403396804739
768,21.863524533857117
769,23.8021064601611
770,25.520496128413612
771,26.955440123400813
772,28.049738421322832
773,28.7620877925847
774,29.06246943537401
775,28.93862040632635
776,28.400672004099896
777,27.472579208942953
778,26.19618495156279
779,24.626066464434448
780,22.813585910894663
781,20.822639556853712
782,18.715120216582022
783,16.556256123324093
784,14.404987765938495
785,12.319595290185593
786,10.351428516006044
787,8.541906331638714
788,6.919561939273929
789,5.498042465428835
790,4.279705162331518
791,3.2561543816445724
792,2.412363097868847
793,1.7341069515873306
794,1.2033589527158133
795,0.8015311275434446
796,0.5088764393046092
797,0.3064916534360317
798,0.1743906615449018
799,0.09369996235318824
800,0.04842934722871628
801,0.026025801329507773
802,0.018081759199995752
803,0.02002604672174102
804,0.030924394677082176
805,0.05285602841102094
806,0.0893584346995745
807,0.1454814865834367
808,0.22834578603447375
809,0.34725727642321363
810,0.5134818941758458
811,0.7398565982532825
812,1.0412573488679675
813,1.4327354128226777
814,1.931757494764464
815,2.5558758392165988
816,3.321489227380368
817,4.244340459942886
818,5.339240968646974
819,6.620531563989246
820,8.100506706792197
821,9.791004025973603
822,11.698347976620031
823,13.824773806153994
824,16.172216450601223
825,18.73962301555602
826,21.51926373400902
827,24.49806919529706
828,27.652323500235322
829,30.880486330123684
830,34.129637373506796
831,37.37608504489697
832,40.54579631883302
833,43.588750033757485
834,46.46651403634863
835,49.1445303229886
836,51.557378563468305
837,53.649773665955834
838,55.37706653171912
839,56.70351385171189
840,57.56906720194306
841,57.96647105280379
842,58.1039894083262
843,57.943892861921675
844,57.44957407258805
845,56.72026233101526
846,55.74305007687201
847,54.498130847387756
848,52.99441991851789
849,51.31828760933985
850,49.48384932441667
851,47.500100635552435
852,45.41752785053581
853,43.293177134496815
854,41.10363872240269
855,38.770930595967286
856,36.36623899187136
857,33.93399924663599
858,31.47522110994911
859,29.051729310805133
860,26.712420502453945
861,24.4583666312476
862,22.298761510111916
863,20.258519414871547
864,18.368312222716664
865,16.625619803442763
866,15.04342828992143
867,13.646842941987389
868,12.451724781467796
869,11.44408108609056
870,10.621639555284101
871,9.97526725130606
872,9.486200069928518
873,9.157488053877248
874,8.99496770901055
875,8.993154010802996
876,9.143469407521408
877,9.438481302498491
878,9.870803700458902
879,10.432274647645837
880,11.116770369988998
881,11.91849618139235
882,12.839649936874103
883,13.8767423357883
884,15.027608700206498
885,16.275011737276394
886,17.60891133206774
887,19.025538361895343
888,20.504537912475662
889,22.054168257608957
890,23.664762160598777
891,25.33603687048603
892,27.057797490709984
893,28.828441713433055
894,30.63892648721594
895,32.478173656178754
896,34.324267127670645
897,36.18094296068368
898,38.06429991474132
899,39.95822112214439
900,41.847293425499984
901,43.74559840967788
902,45.64110290923966
903,47.533687799552915
904,49.42643389108675
905,51.31168002873972
906,53.16683393364306
907,54.99718184139736
908,56.79401567197128
909,58.57051627305358
910,60.30450249512184
911,61.980142418241265
912,63.61135739232535
913,65.21153658007404
914,66.78120108121678
915,68.3057689988809
916,69.7645983112628
917,71.15102892918627
918,72.47368345202293
919,73.73294910017499
920,74.93820770817632
921,76.09100582210864
922,77.17746330289262
923,78.19343641526407
924,79.17157586027422
925,80.09502461412427
926,80.94277518684308
927,81.70865383695197
928,82.40602275485588
929,83.0618582597449
930,83.66924089683604
931,84.22721411692581
932,84.74574834754003
933,85.21126224769388
934,85.61089495670794
935,85.98021234453762
936,86.32343282365458
937,86.61125113229419
938,86.85491676362338
939,87.0619083710702
940,87.23536978176703
941,87.36686962950601
942,87.45970985099473
943,87.53400368816854
944,87.5844378420404
945,87.60481901204749
946,87.61625031180911
947,87.61389300812499
948,87.57725646374764
949,87.5162640191157
950,87.45223798989805
951,87.37538305143828
952,87.29077493791442
953,87.21085102051676
954,87.14333530898985
955,87.06306544950797
956,86.96100225444218
957,86.84366006772424
958,86.71045967588704
959,86.57017552763263
960,86.42599368049805
961,86.28261944377245
962,86.14513384403634
963,86.00212582191125
964,85.8614420432646
965,85.72517081590937
966,85.584593059597
967,85.4317957774399
968,85.2841561207227
969,85.1458358505874
970,85.00344853469467
971,84.8607659776323
972,84.72528395946523
973,84.59798641206585
974,84.46738806648152
975,84.33200339728602
976,84.19418166366187
977,84.05018505253139
978,83.89651401604122
979,83.74237937429615
980,83.59094681438067
981,83.4339686748744
982,83.26889103325176
983,83.11056733595278
984,82.95364144109121
985,82.79178962955945
986,82.63271333216176
987,82.48187702705232
988,82.33429451319074
989,82.18933012029558
990,82.05219354770045
991,81.91878290659137
992,81.7840637960819
993,81.65357686795957
994,81.54303362417546
995,81.44884844156189
996,81.36075595849627
997,81.27788374980459
998,81.20260794985737
999,81.1325215258031
1000,81.06784840211093
1001,81.01286169000971
1002,80.969718882665
1003,80.93668290953154
1004,80.91418915827408
1005,80.90463549202875
1006,80.90479538553689
1007,80.90455159573007
1008,80.91042208787107
1009,80.93034476034352
1010,80.9623887886658
1011,81.00114492614382
1012,81.04754084004422
1013,81.10614948387541
1014,81.17449133553332
1015,81.24875748929247
1016,81.33170308457335
1017,81.42813890841946
1018,81.53679061856741
1019,81.65667929584646
1020,81.79002301688406
1021,81.93324036177121
1022,82.082130212109
1023,82.23746593491197
1024,82.39990371921975
1025,82.56728800089664
1026,82.73421282286074
1027,82.90288721838695
1028,83.07631566798618
1029,83.25121253127382
1030,83.4180844293912
1031,83.57435737549794
1032,83.72446251734654
1033,83.86928720046147
1034,84.00895846837811
1035,84.14725959679377
1036,84.28272784503692
1037,84.41384697000844
1038,84.54181120538033
1039,84.66501786356152
1040,84.78276420927763
1041,84.89463095148221
1042,85.00022167125698
1043,85.1029499207782
1044,85.20184529591234
1045,85.29244508213921
1046,85.37179997384419
1047,85.43947455979165
1048,85.49295018989753
1049,85.53492481283749
1050,85.56376065015289
1051,85.58015908179219
1052,85.58768827796264
1053,85.58221030594589
1054,85.56605600693854
1055,85.5440408029984
1056,85.51739112642927
1057,85.48071857953806
1058,85.43870605198389
1059,85.39637527677665
1060,85.3549243144448
1061,85.3155437728996
1062,85.27583892919677
1063,85.23507374916603
1064,85.1911961414446
1065,85.14447927966243
1066,85.1026826729234
1067,85.06249223888199
1068,85.02499059003739
1069,84.98813528229621
1070,84.9594634121219
1071,84.93759762779518
1072,84.9172035145923
1073,84.90301089999299
1074,84.89661215960506
1075,84.90100079296457
1076,84.91861508669228
1077,84.94858130223382
1078,84.98993473146378
1079,85.03968036060107
1080,85.09870586092677
1081,85.16609955335493
1082,85.24655300079017
1083,85.33417751697571
1084,85.43549160961585
1085,85.54745752840913
1086,85.6620754911672
1087,85.77993334095326
1088,85.90157557902951
1089,86.02388895458446
1090,86.14698793730658
1091,86.27361769333277
1092,86.40261835151554
1093,86.53302169473068
1094,86.66336181702809
1095,86.79302920791619
1096,86.9214765143916
1097,87.03682658695219
1098,87.1474520042819
1099,87.2582378890425
1100,87.36403486271138
1101,87.46026543112926
1102,87.5513147554105
1103,87.64107293936691
1104,87.72447006189996
1105,87.79904551890407
1106,87.87191596713092
1107,87.94206154072121
1108,87.99913767340624
1109,88.05168704416471
1110,88.10944386241579
1111,88.16662048355629
1112,88.2184858975191
1113,88.26688285704799
1114,88.32366513481757
1115,88.38248789720686
1116,88.43460038627835
1117,88.48416330996369
1118,88.53761044582437
1119,88.58727182845665
1120,88.63740275295392
1121,88.69446247313859
1122,88.75331141723397
1123,88.80160124543346
1124,88.84540403853708
1125,88.89217440496212
1126,88.9404887230495
1127,88.97567924799775
1128,89.00773201557723
1129,89.04313576109104
1130,89.08218724940913
1131,89.11360202779363
1132,89.14072930332019
1133,89.16340138085636
1134,89.1798293356522
1135,89.18924504783013
1136,89.19962694597572
1137,89.21199039975637
1138,89.21779351717747
1139,89.21799694683881
1140,89.22439085136689
1141,89.23152445504974
1142,89.23422316355979
1143,89.23381262914126
1144,89.23876550811383
1145,89.24325520339623
1146,89.24435542280928
1147,89.24433758912932
1148,89.24883660235315
1149,89.25177827871752
1150,89.25086193070325
1151,89.25261037409622
1152,89.25816455294466
1153,89.26158062904337
1154,89.2585287061121
1155,89.25128383356821
1156,89.2362600447636
1157,89.21384003850929
1158,89.19237046490682
1159,89.17490173183009
1160,89.15817830322479
1161,89.1407209569164
1162,89.12696536996448
1163,89.11312194373801
1164,89.09823060165665
1165,89.07845342274429
1166,89.0546896972348
1167,89.03445939137639
1168,89.015006139773
1169,89.0006646816433
1170,88.98688092096396
1171,88.9687509817504
1172,88.94972222764385
1173,88.92909481243372
1174,88.9003894475029
1175,88.86395786306967
1176,88.82402299421291
1177,88.77885998955897
1178,88.72830009459197
1179,88.67313209976055
1180,88.617399229621
1181,88.56061974624924
1182,88.49644241600596
1183,88.4271346775672
1184,88.3551492455448
1185,88.27380335644635
1186,88.1862498695052
1187,88.09640947199574
1188,88.0013762265521
1189,87.89804785726935
1190,87.79221439180145
1191,87.6876464715215
1192,87.580905592096
1193,87.46263062505878
1194,87.33416900511041
1195,87.2035642231487
1196,87.06890644362971
1197,86.92575384751557
1198,86.77296191464431
1199,86.61492441170304
1200,86.45058326499473
1201,86.2825720623718
1202,86.1130411970608
1203,85.93872048158482
1204,85.75468284869625
1205,85.56297078087512
1206,85.37103025615403
1207,85.18043491579591
1208,84.98783468137054
1209,84.79570432050858
1210,84.60766684060395
1211,84.42593160128692
1212,84.24949605676409
1213,84.07916945681775
1214,83.91552455622343
1215,83.75635491583111
1216,83.60821829027023
1217,83.4769563172963
1218,83.36019798459621
1219,83.25285553086933
1220,83.15607054770678
1221,83.07099469022903
1222,82.99644549288313
1223,82.93707669731032
1224,82.89307627008338
1225,82.86529353419593
1226,82.85211873307401
1227,82.85380385840266
1228,82.87010623594468
1229,82.89541690582821
1230,82.92679666312122
1231,82.97031882137858
1232,83.0289374225329
1233,83.09770012708388
1234,83.17648586948098
1235,83.26383706297558
1236,83.35072380987526
1237,83.43914667059988
1238,83.5318846877948
1239,83.6242014576563
1240,83.7136967271767
1241,83.80017115356411
1242,83.88709212160671
1243,83.97355639113789
1244,84.05292014926725
1245,84.12680984571092
1246,84.1973051914813
1247,84.26379517714366
1248,84.32738957943617
1249,84.39219014025159
1250,84.45527315367461
1251,84.5131756810692
1252,84.57131075405677
1253,84.63341489708203
1254,84.69779142379896
1255,84.76041583036881
1256,84.81943949133809
1257,84.87915967161781
1258,84.93870416343415
1259,84.99975748952124
1260,85.06129734751855
1261,85.12580871903347
1262,85.191347015205
1263,85.25469418182291
1264,85.31440965822755
1265,85.37192854099361
1266,85.42531250490778
1267,85.47409219095549
1268,85.52095241654126
1269,85.56772455952375
1270,85.60999182571807
1271,85.64872539977338
1272,85.68234492669355
1273,85.71227044506654
1274,85.73449392808399
1275,85.74672928879646
1276,85.75678984574122
1277,85.76636465975287
1278,85.77092284321859
1279,85.76782343604144
1280,85.7587091972638
1281,85.74691481813257
1282,85.73144889401306
1283,85.71255111403487
1284,85.68942061296836
1285,85.66096905569756
1286,85.62388407337812
1287,85.58415698860907
1288,85.54414827529881
1289,85.49644995464404
1290,85.44087117990578
1291,85.3839620627598
1292,85.326930438686
1293,85.26577361962536
1294,85.19633320279988
1295,85.12078079565293
1296,85.04219844285235
1297,84.95714121548198
1298,84.86623157215236
1299,84.77237406632275
1300,84.67075266363341
1301,84.56265821018921
1302,84.45514583395453
1303,84.3415804792346
1304,84.21648029704326
1305,84.08022408451386
1306,83.9380103459161
1307,83.7883344484471
1308,83.63063897303276
1309,83.46485902987773
1310,83.29090387626059
1311,83.10898399569983
1312,82.91632611051651
1313,82.71143235894634
1314,82.49494745889551
1315,82.26473886928291
1316,82.0215748864344
1317,81.76902959371932
1318,81.50568841243226
1319,81.22966309601301
1320,80.93976566672424
1321,80.63449210846144
1322,80.31539359287262
1323,79.98233022870107
1324,79.6316974217099
1325,79.26594653582421
1326,78.88702792176794
1327,78.49214065306795
1328,78.07925453126613
1329,77.65228529110485
1330,77.2083836799633
1331,76.7471466053598
1332,76.26612665096667
1333,75.7716882082844
1334,75.26313630270246
1335,74.73568558933842
1336,74.19122657256882
1337,73.63383358317581
1338,73.06326787861848
1339,72.47297164947909
1340,71.86455377178497
1341,71.24220303410544
1342,70.60145918366356
1343,69.94194614658747
1344,69.26947652301101
1345,68.58113789579562
1346,67.8714121975674
1347,67.14224051197918
1348,66.39900682255661
1349,65.63588838036124
1350,64.8483747265192
1351,64.04371949210511
1352,63.22543100537908
1353,62.39392174544541
1354,61.544492549659054
1355,60.684567775698355
1356,59.81075799437889
1357,58.92246344424339
1358,58.024266416490406
1359,57.118811442818135
1360,56.206843769999544
1361,55.28606590833196
1362,54.36380813600394
1363,53.44345658742769
1364,52.52347627019249
1365,51.60391061758725
1366,50.68821638415432
1367,49.77893105110247
1368,48.872526008222195
1369,47.97485952276313
1370,47.0852690877029
1371,46.20508458674432
1372,45.33474714043855
1373,44.47476802241867
1374,43.62654364452013
1375,42.78749963734661
1376,41.955574186609894
1377,41.13231741977005
1378,40.31742663863228
1379,39.510244751449974
1380,38.71140022625775
1381,37.92371025882515
1382,37.14624336203569
1383,36.37775423231622
1384,35.61947104058492
1385,34.87288036311576
1386,34.1366690579188
1387,33.413009321433606
1388,32.70393716658274
1389,32.009472139681705
1390,31.32918738566612
1391,30.665986052341555
1392,30.020166036339436
1393,29.390546011139996
1394,28.777051286613563
1395,28.18071057728619
1396,27.602593706878835
1397,27.041154225162707
1398,26.498070190669118
1399,25.974121899691234
1400,25.468558544993908
1401,24.980720611475178
1402,24.51279450733027
1403,24.063325014853714
1404,23.630809233397038
1405,23.21647135969618
1406,22.821290510462862
1407,22.444707952052433
1408,22.086204094723904
1409,21.74622294874152
1410,21.424349784224653
1411,21.119633059193156
1412,20.831255003996365
1413,20.559387365923076
1414,20.30374513964256
1415,20.062656411452323
1416,19.836393737949333
1417,19.625549124396034
1418,19.42877918223645
1419,19.244376239806417
1420,19.071937705509775
1421,18.910957016290883
1422,18.759735789923635
1423,18.618189623114915
1424,18.48601118926247
1425,18.361921760650134
1426,18.244628124702146
1427,18.134660296530654
1428,18.031623505339546
1429,17.933658639264543
1430,17.83906697977283
1431,17.74820780075245
1432,17.659811561014287
1433,17.573336220777072
1434,17.4886116471952
1435,17.405537249281224
1436,17.32181318960354
1437,17.2368753568018
1438,17.151211785460223
1439,17.06372907934031
1440,16.972478490432998
1441,16.877085348625553
1442,16.777998200353707
1443,16.67452514129187
1444,16.56505032132413
1445,16.44961785751439
1446,16.32797484590578
1447,16.199030568145893
1448,16.06241644922461
1449,15.91834448867699
1450,15.766299117899617
1451,15.605356691565364
1452,15.435642581064496
1453,15.257833379625344
1454,15.071007833947883
1455,14.874866830683903
1456,14.669972625771662
1457,14.45707584131872
1458,14.236182911411042
1459,14.006974745674233
1460,13.769821966866742
1461,13.525144455161538
1462,13.273293773000411
1463,13.014742925300672
1464,12.750342515146727
1465,12.48054878325084
1466,12.20558647176726
1467,11.92674222780108
1468,11.644837808821876
1469,11.360182702751834
1470,11.073530195803462
1471,10.785467419047102
1472,10.496793457675428
1473,10.208561647511473
1474,9.92167844016418
1475,9.636875284000084
1476,9.354783094410708
1477,9.075986649438981
1478,8.801394868913686
1479,8.53116793339408
1480,8.265541120114925
1481,8.005120675311126
1482,7.7503376056159
1483,7.50139540923656
1484,7.258857043009477
1485,7.022975419443722
1486,6.793663317855179
1487,6.57123635115761
1488,6.356004971312644
1489,6.148022935869929
1490,5.947073531810364
1491,5.7533163386154635
1492,5.567334442332685
1493,5.3890464946489836
1494,5.218225405083849
1495,5.055007624168666
1496,4.899526606330191
1497,4.7517564657311615
1498,4.611579414766885
1499,4.4788431802248665
1500,4.353430872727081
1501,4.235235543381882
1502,4.1242726557833915
1503,4.020717621312059
1504,3.924325420055318
1505,3.8347512094340352
1506,3.751999635469015
1507,3.676033494875927
1508,3.606624005759318
1509,3.5436359090816256
1510,3.486856807110102
1511,3.43643575256358
1512,3.392271844717023
1513,3.354345136318049
1514,3.3223853926818006
1515,3.296111742688502
1516,3.275432814818775
1517,3.260420486924179
1518,3.251096439557829
1519,3.2472142531646986
1520,3.248823449732738
1521,3.256020176313302
1522,3.2686303346035843
1523,3.2865366357785994
1524,3.3097827807974993
1525,3.3383376967976326
1526,3.3720456275183337
1527,3.411202708376236
1528,3.455967679686622
1529,3.5063626602470035
1530,3.5623191291648086
1531,3.6239734601260727
1532,3.6914916835791334
1533,3.7648032704864316
1534,3.843707349372157
1535,3.9288696555895974
1536,4.0203002433301505
1537,4.117659124906364
1538,4.221215099503589
1539,4.331117139064466
1540,4.447235290969289
1541,4.569594294657094
1542,4.698450323289771
1543,4.833571417198317
1544,4.974785204562258
1545,5.1222753481528605
1546,5.27624540118356
1547,5.436606441528827
1548,5.602564551601426
1549,5.7744375171265565
1550,5.952687492665625
1551,6.136691804540511
1552,6.326186185860285
1553,6.521415762342833
1554,6.721875777493643
1555,6.9273418280063375
1556,7.1384386304136305
1557,7.355219581429728
1558,7.577083476284045
1559,7.803834703769075
1560,8.035661083377795
1561,8.272696344074472
1562,8.513939590332752
1563,8.759332162057047
1564,9.010193705520225
1565,9.26602375135666
1566,9.52571511509109
1567,9.790351851732723
1568,10.05967267143833
1569,10.332688325637731
1570,10.60947339946602
1571,10.890298595925675
1572,11.175219665336176
1573,11.464638179864354
1574,11.758333080307956
1575,12.058665544200903
1576,12.363896279523242
1577,12.673309298372105
1578,12.988055929898247
1579,13.309725253652559
1580,13.636024392234871
1581,13.967848663615996
1582,14.306071958790385
1583,14.650443790745088
1584,15.000217579869723
1585,15.354806188632079
1586,15.715790382020533
1587,16.08265486209221
1588,16.452615925445436
1589,16.828018063278076
1590,17.209832228101025
1591,17.59539643468877
1592,17.98564864642202
1593,18.381990573570473
1594,18.78294408623019
1595,19.188190468425482
1596,19.5980772412266
1597,20.014023841194334
1598,20.435045308868187
1599,20.8586614019501
1600,21.286380849119187
1601,21.719875219904672
1602,22.15431518251316
1603,22.591088755191247
1604,23.031845519042626
1605,23.474000737013174
1606,23.915673850609572
1607,24.35874527906412
1608,24.8026603060426
1609,25.246661421170014
1610,25.688713534643814
1611,26.13008316334524
1612,26.571696074493115
1613,27.010651296569975
1614,27.44834858234373
1615,27.886461280455915
1616,28.322675792423784
1617,28.75531082430772
1618,29.18870143487133
1619,29.622919080187135
1620,30.05553053806688
1621,30.48636399861882
1622,30.917482579551624
1623,31.349846166794155
1624,31.780813842036697
1625,32.21001377949332
1626,32.638691191661096
1627,33.06727034175274
1628,33.49415680310904
1629,33.9202561692604
1630,34.34603468566892
1631,34.76938052957276
1632,35.18866698444646
1633,35.60591064445263
1634,36.02271340639555
1635,36.43947509690889
1636,36.85443342753548
1637,37.268843134196786
1638,37.684736104081416
1639,38.10087162844317
1640,38.51553393719029
1641,38.92930558736946
1642,39.34279143846032
1643,39.75453788981779
1644,40.16631518206355
1645,40.58146504706551
1646,40.996517402291644
1647,41.40752975693096
1648,41.815077973655015
1649,42.222477067772836
1650,42.62822536401217
1651,43.031009372442476
1652,43.43402480537451
1653,43.83669109204162
1654,44.23767043558206
1655,44.638450566543696
1656,45.03838293817028
1657,45.43571939785084
1658,45.831304605043464
1659,46.228835974083175
1660,46.628043172875
1661,47.025635381739804
1662,47.422817405866894
1663,47.8199939971568
1664,48.21372670794126
1665,48.602126671103605
1666,48.985342627288354
1667,49.36578951752187
1668,49.74372237797014
1669,50.118709610967585
1670,50.49075203313458
1671,50.856506016407806
1672,51.2120934617227
1673,51.562081532882175
1674,51.909183473995135
1675,52.24864755731988
1676,52.578463240246066
1677,52.90432721391069
1678,53.22982769689636
1679,53.55351148065129
1680,53.8715582715359
1681,54.185777053135595
1682,54.49792773298306
1683,54.80631805372607
1684,55.11169767136701
1685,55.418482725369216
1686,55.722919025665604
1687,56.023451373950195
1688,56.32313816239028
1689,56.62346345783934
1690,56.922152115300364
1691,57.214647511908254
1692,57.50162230992016
1693,57.787890874002855
1694,58.06972299234119
1695,58.34157617090032
1696,58.60453329153988
1697,58.85733121052789
1698,59.09387536584456
1699,59.31819943217577
1700,59.5292879064144
1701,59.721521394172655
1702,59.89085037714704
1703,60.03689905459953
1704,60.159146832805675
1705,60.257305645257176
1706,60.328503639899566
1707,60.36999820450211
1708,60.38636445468219
1709,60.38115486485327
1710,60.35323955980586
1711,60.30928393976255
1712,60.250465736654036
1713,60.178694643498424
1714,60.103322749141306
1715,60.03341516141666
1716,59.9736347723581
1717,59.926452080644715
1718,59.891308583767454
1719,59.87643136734963
1720,59.891327884132814
1721,59.93785038081445
1722,60.01724722249938
1723,60.134317131486604
1724,60.28514461684791
1725,60.469743959786385
1726,60.688980114622694
1727,60.938254927952414
1728,61.212497644724706
1729,61.50850300522562
1730,61.824967643008165
1731,62.15794964907291
1732,62.50251710341081
1733,62.848506078553314
1734,63.19304051389602
1735,63.53314429692031
1736,63.86026284808102
1737,64.17201453273803
1738,64.46938017708986
1739,64.7513703205597
1740,65.01185310924872
1741,65.24488796295151
1742,65.45565330884561
1743,65.6412746467653
1744,65.80479595056647
1745,65.94782415024719
1746,66.0706285038192
1747,66.17322432985468
1748,66.25208462274664
1749,66.31385219244964
1750,66.36187363319043
1751,66.38748507906418
1752,66.39412165178916
1753,66.38656912740174
1754,66.36985589009568
1755,66.34111152157479
1756,66.29820733402241
1757,66.24610007921007
1758,66.1781250865464
1759,66.09781138027856
1760,66.00796960051531
1761,65.91559144855292
1762,65.81688888511945
1763,65.70687808002987
1764,65.59213249560959
1765,65.47025171042144
1766,65.34035006120419
1767,65.19818329018838
1768,65.04891818588871
1769,64.89530717782075
1770,64.72966850061046
1771,64.55938201427242
1772,64.38281785449237
1773,64.19288410796791
1774,63.98386668107636
1775,63.760998010990825
1776,63.52562768118117
1777,63.27614166509476
1778,63.011693510818226
1779,62.73717221150386
1780,62.45392711635245
1781,62.15504284479405
1782,61.84250366381335
1783,61.52192832591679
1784,61.1863202995002
1785,60.835830188510954
1786,60.48007843890306
1787,60.124384235347826
1788,59.762196015461456
1789,59.39161920575957
1790,59.01390303207234
1791,58.6268905215086
1792,58.23114020220291
1793,57.823596413807714
1794,57.4128463965458
1795,56.999039963386494
1796,56.576878151160166
1797,56.14925884240381
1798,55.72166007132623
1799,55.28521679015673
1800,54.84163666663052
