# OperatorName = Michael Matus
# Modification = Created as New Dataset
# ModificationDateTime = thu oct 27 11:49:39 2022 Coordinated Universal Time (GMT+0:00)
# Parameters = 
# SampleDescription = 
# InstrumentModel = Lambda 1050+
# InstrumentSerialNumber = 1060L2011032
# InstrumentSoftwareRevision = PerkinElmer UV WinLab 7.1.0.68 / 2.02.11 Lambda 900 UV/VIS/NIR, May 23 2018 11:23:04
# SlitWidth = 3350/servo 860.8/1
# LampsUsed = UV/VIS
# InstrumentAccessories = CommonBeamDepol,RBeamAtt,SBeamAtt,150mm sphere / downward view, WB InGaAs Detector
# UvVisSlitMode = Program
# NirSlitMode = Program
# NirSlitWidth = 3350/servo 860.8/1
# UvVisIntegrationTime = 3350/1 860.8/1
# NirIntegrationTime = 3350/1 860.8/1
# NirDetectorGain = 14.00
# SampleBeamPosition = Front
# CommonBeamDepolarizer = off
# AttenuatorsUsed = S:100 R:100
# DataSetChecksum = 0
# DataSetDataType = 16
# DataSetName = Sample4.Blank
# DataSetAbscissaRange = 300 900
# DataSetOrdinateRange = 0 99.13782376170501
# DataSetInterval = -1
# DataSetNumPoints = 601
# DataSetXAxisLabel = nm
# DataSetXAxisUnitType = 11
# DataSetYAxisLabel = %R
# DataSetYAxisUnitType = 3
# DataSetSamplingMethod = 0
# DataSetFileType = 0
# DataSetAlias = Sample4.Blank
nm,%R
300,98.70496067375603
301,98.72861608733432
302,98.72737377754272
303,98.74515269723544
304,98.73296397157702
305,98.72868715681011
306,98.74268545292809
307,98.72966794605678
308,98.71474244479124
309,98.73666835590981
310,98.76631119165614
311,98.74119927356254
312,98.73727534266882
313,98.77808775497671
314,98.77449455212627
315,98.79336314971532
316,98.82306001539703
317,98.80995311903997
318,98.76938415885218
319,98.8320721857675
320,98.870905814486
321,98.83735055719036
322,98.83142939867524
323,98.83498349627439
324,98.84262111248698
325,98.83629302347708
326,98.81789221642929
327,98.8644599866087
328,98.88270184609716
329,98.88143509289917
330,98.86661847532717
331,98.86560399458672
332,98.86727898279497
333,98.85696758727231
334,98.86859480706762
335,98.88805989555905
336,98.8995231370797
337,98.91571225733506
338,98.9274209958876
339,98.98727470888592
340,98.98136843855784
341,98.91964665682879
342,98.92589334270974
343,98.95596229823059
344,98.97803996056908
345,98.98045235837381
346,98.96890352623375
347,98.99904681568485
348,99.02471073151443
349,99.03365000512653
350,98.98726910472149
351,98.98214158884669
352,99.03090339088479
353,99.02882807020418
354,99.04969755309727
355,99.01227574775046
356,98.97837064595774
357,99.01342427635402
358,99.03884809728939
359,99.01041487056096
360,99.03787927488084
361,99.01131384434264
362,99.03355024903935
363,98.99800685450383
364,99.03607552524304
365,99.01416130350181
366,98.99756357726164
367,99.04795460904661
368,99.03453382662802
369,99.04004594236906
370,99.03152543619665
371,99.03605331150129
372,99.0854351345297
373,99.04265863235699
374,99.00921151864188
375,99.07892672073835
376,99.04874109684961
377,99.05497916436408
378,99.04803406309102
379,99.0650779289356
380,99.07679732820512
381,99.06528916037452
382,99.0595816592025
383,99.06854744947809
384,99.0731703584511
385,99.08878466132582
386,99.083322079227
387,99.07785159038986
388,99.06450393362763
389,99.09662465617681
390,99.08540838911179
391,99.10728660185728
392,99.13122265001698
393,99.0859169604629
394,99.12432130241878
395,99.09115422005752
396,99.07359327406826
397,99.08889227500113
398,99.09910230700886
399,99.11138041021962
400,99.08955101398256
401,99.11930051316278
402,99.11840120756983
403,99.10466882321609
404,99.11899772343502
405,99.08806334504708
406,99.0838629305226
407,99.10295665868111
408,99.10888513434487
409,99.11909890646395
410,99.06475607403368
411,99.09398102633614
412,99.11061992021224
413,99.09925228956607
414,99.13501498196084
415,99.1193596513541
416,99.13782376170501
417,99.1355268914058
418,99.10114782378324
419,99.10741407915057
420,99.12563967766592
421,99.09430358823772
422,99.11294219625188
423,99.11880157704483
424,99.11245320809674
425,99.12681605401937
426,99.09809551353746
427,99.12120941765959
428,99.12038493973118
429,99.1251766891488
430,99.0950397175035
431,99.08760684652403
432,99.1116408376751
433,99.1119718817751
434,99.10015894359564
435,99.12073660655871
436,99.09577929742777
437,99.12363436579216
438,99.12363844827972
439,99.11628128423321
440,99.11636535548315
441,99.11744495030025
442,99.12414787179678
443,99.13482866348872
444,99.13451481108065
445,99.10222945860431
446,99.11490696161582
447,99.12369400736954
448,99.10148553521587
449,99.10198315278704
450,99.126858948591
451,99.11069111755462
452,99.10953160273048
453,99.11749787765955
454,99.11833114340031
455,99.12405928814994
456,99.1230667941659
457,99.11094854810733
458,99.11476675089878
459,99.11094762159895
460,99.11949551790275
461,99.12065468085571
462,99.12563028832115
463,99.11434390589139
464,99.1054669833603
465,99.08838680190945
466,99.10637708097839
467,99.10024237664499
468,99.11060265236048
469,99.1193886242387
470,99.11292211597218
471,99.13215487255907
472,99.11225999250075
473,99.10363997307755
474,99.1125087381154
475,99.11856058906504
476,99.1199687472819
477,99.11640262224458
478,99.10363961332006
479,99.0944426187421
480,99.09957939252824
481,99.11822993749844
482,99.1097800488693
483,99.1092883810196
484,99.1053090171032
485,99.10863901304229
486,99.12636739041469
487,99.11098064120395
488,99.09324827233522
489,99.11524278152709
490,99.10491178648635
491,99.09815922173792
492,99.11158975382537
493,99.10867334168834
494,99.12771361003112
495,99.12246077642848
496,99.1171202865027
497,99.12180400732093
498,99.11545565732445
499,99.12423657323464
500,99.13134496527482
501,99.1347674518307
502,99.12631845912108
503,99.11929289376239
504,99.11703048014898
505,99.11276558209418
506,99.10883736802644
507,99.10941585460232
508,99.1084102869514
509,99.11165312620619
510,99.11247769580251
511,99.12244940473263
512,99.1195255311082
513,99.11336728865443
514,99.11983597099919
515,99.11003397974967
516,99.10812198607314
517,99.11574780391882
518,99.11110106149087
519,99.10372259957096
520,99.10223060062293
521,99.11291796563091
522,99.11705977166052
523,99.10612361422321
524,99.10927228147321
525,99.11117864764924
526,99.10189936013757
527,99.10463430872652
528,99.10529798829654
529,99.10388985937071
530,99.1140067490835
531,99.10845247829602
532,99.09941311284004
533,99.10405867944432
534,99.10961917298934
535,99.10762902679188
536,99.10887573849479
537,99.11145133145884
538,99.10904511652745
539,99.10431261701429
540,99.11154104273814
541,99.11918731160821
542,99.10614282748192
543,99.10838758727887
544,99.11952715297589
545,99.10589548855012
546,99.1020721347529
547,99.11097010376452
548,99.1075614411244
549,99.11296986292633
550,99.12237305326107
551,99.11222327094352
552,99.10664948052141
553,99.10781546249056
554,99.1049868195367
555,99.10748360914539
556,99.10889903425534
557,99.1038224702077
558,99.1016584712411
559,99.1083180506131
560,99.11214918925279
561,99.11073410445807
562,99.10565494503575
563,99.1056576429644
564,99.10599301927137
565,99.10382668429209
566,99.09957709095843
567,99.1051599202832
568,99.11715963514824
569,99.11916069354979
570,99.10824312945846
571,99.08774535447257
572,99.10591036208974
573,99.09782719589708
574,99.0988271294067
575,99.09641053836376
576,99.09074397079294
577,99.1056608629049
578,99.12041169317209
579,99.09932707836495
580,99.10649351950276
581,99.10624405749986
582,99.09841034189333
583,99.09532734544729
584,99.1073268104596
585,99.11741083998494
586,99.1089940154812
587,99.11449396088756
588,99.10482614071992
589,99.11649105502636
590,99.11382517725956
591,99.10159358978277
592,99.11170867268892
593,99.13402478720694
594,99.11580835465602
595,99.10515891269537
596,99.09662281414103
597,99.08196581684543
598,99.03335293587246
599,99.00255155449287
600,99.00715629112555
601,98.99568130905692
602,98.98539806107557
603,98.98996071824949
604,99.00272662127185
605,99.00965001982271
606,99.00515753727316
607,99.01181121337355
608,99.00374348440036
609,99.00382639787094
610,99.00881513035523
611,99.01463503870204
612,99.01130825557583
613,99.00091548720805
614,99.00149722309112
615,98.99376746605982
616,98.98446077427492
617,99.00930917527077
618,99.00531955792773
619,99.01213065956986
620,99.03149447246203
621,99.0040717867112
622,99.02043428754008
623,99.00066530685488
624,99.00531593962017
625,98.99966880828873
626,98.99211424050864
627,98.98688532522286
628,99.00440064011222
629,99.01967360457806
630,99.00946185983625
631,99.01867232349868
632,98.99311519172446
633,99.019162902447
634,98.9877259677353
635,99.02123425121457
636,99.02123206335175
637,99.01832582647963
638,98.99950357620526
639,99.01011263603819
640,99.01939552445299
641,99.02436641064625
642,99.00149237924714
643,98.98997837160202
644,98.99287693510365
645,99.00596377144754
646,98.98228421065483
647,99.01159150138498
648,98.99991817159358
649,99.0119196896808
650,98.99776657362429
651,99.01083973268821
652,99.02532087979888
653,98.99065393323423
654,98.98834084826268
655,99.01389340425699
656,99.01777555833242
657,99.00537391757315
658,98.99735674053595
659,99.0119001312967
660,98.99603604044785
661,98.99165883234747
662,98.99215708699369
663,99.0147806470636
664,99.01370504418628
665,99.00346693573593
666,99.00585932272215
667,99.01427549983009
668,98.99389778456623
669,98.98886734105344
670,98.98969584748866
671,99.00123738108546
672,99.0248093484233
673,99.00016574960362
674,99.04062369121264
675,99.01935761225175
676,99.02223428492059
677,99.00699730965047
678,98.98757467458054
679,99.01654171597718
680,99.03908585618274
681,99.0004944370402
682,99.01965549382066
683,99.01430476998989
684,99.01857783860918
685,98.99211276272803
686,99.01191387617708
687,99.00566805566706
688,98.99244585814255
689,99.00385879799485
690,99.02954848867981
691,99.00664777691495
692,99.00623605276755
693,99.01746906730787
694,99.00647873951176
695,98.98590387676954
696,98.99713345919962
697,99.00278595967907
698,99.00213018848558
699,99.00638765431273
700,99.01072300794098
701,99.00376481715027
702,99.03084735175388
703,99.00229083896257
704,99.01757954339412
705,99.00841800081395
706,99.00228837494247
707,99.01094601068316
708,99.00514545676835
709,98.99730747143013
710,99.00954920280059
711,99.00554816850187
712,99.03197261381793
713,99.00464833194057
714,98.99405157642057
715,98.99959358649679
716,99.00887880372574
717,99.02882795983736
718,99.02556352201874
719,99.0116361620235
720,98.99015932824481
721,98.98796873954728
722,99.02552171755633
723,99.01308245651119
724,99.01177933801169
725,99.01266810000574
726,99.00357181723302
727,98.98215604200597
728,99.01630241661299
729,99.00202763381164
730,99.01296873328803
731,98.9861499283572
732,99.01093245867936
733,99.01125374122105
734,99.00348039582013
735,99.01601449532758
736,98.99854594264973
737,99.01357850675979
738,99.0195514028832
739,99.02325773529097
740,99.01210777755554
741,98.97685207732833
742,98.99782402018948
743,99.02136049019862
744,98.98292289061847
745,98.98124035506083
746,98.97674113137639
747,98.97200665107235
748,98.97716818262988
749,99.0005636135263
750,98.97959530747748
751,98.9961467952501
752,99.01187977232789
753,99.01283636397196
754,99.0032882401923
755,99.00769538508189
756,99.014580511039
757,99.00664498579333
758,99.02504741033547
759,99.02815069492877
760,98.99496703906921
761,98.97540700126542
762,99.00191648489391
763,99.01125024662211
764,98.9932231628547
765,99.03515542060862
766,99.04039695446264
767,99.00055821757027
768,98.988465987469
769,99.01789227581256
770,99.03044588499137
771,99.01414295970906
772,99.00023909301457
773,99.01324966463098
774,99.01847645841049
775,99.00237809853016
776,98.99509113494955
777,98.99659783111473
778,98.97975875635751
779,98.96025752930893
780,98.94890803063635
781,98.96456296721763
782,98.9954258990714
783,99.00071052315324
784,98.98944171846047
785,98.99574863000814
786,98.99614486346302
787,99.01431505206294
788,98.99780038954026
789,98.97180844380058
790,99.00730124244184
791,99.01464265093345
792,98.99175171279157
793,98.99076428028472
794,99.01067346550408
795,99.00328786345752
796,99.00237454902854
797,99.05035389112331
798,99.0901612087918
799,99.08926269395238
800,99.10132140466443
801,99.0983997686345
802,99.10282540691544
803,99.10676603222691
804,99.08971079109004
805,99.06866608636646
806,99.07640628320645
807,99.11190860193541
808,99.08974994453372
809,99.07181145823691
810,99.08651582447715
811,99.07449690957691
812,99.05612540905148
813,99.0963443700575
814,99.09418180644799
815,99.07255918644441
816,99.06312048749571
817,99.09048894573093
818,99.09398533931618
819,99.06611389793764
820,99.04376156829147
821,99.05862822997364
822,99.05453666672632
823,99.07170670892718
824,99.05029870453828
825,99.07295161847246
826,99.06692891304094
827,99.05202555333948
828,99.03821277947188
829,99.0467168399278
830,99.0490430947741
831,99.05221567909805
832,99.02496328814546
833,99.04727997111976
834,99.01393378344842
835,98.9980404610836
836,98.98168242675312
837,98.97921780150837
838,99.02485007665959
839,99.01482222810031
840,99.00710127414128
841,99.06368105793281
842,99.02241545994009
843,99.03340217766899
844,99.0542196439623
845,99.07737990167972
846,98.93485965200924
847,98.96170569719564
848,98.97982081579634
849,98.94811952263396
850,99.0471007648447
851,99.05682863555406
852,99.0373980121012
853,99.00092770145254
854,98.91861543006786
855,99.06770612577714
856,98.9173544459605
857,99.13160761480417
858,99.02589931291979
859,98.97622316928027
860,98.90935857461407
861,99.03727807799557
862,98.94941502964008
863,98.97311679162124
864,99.00670971236711
865,99.00634458920928
866,99.02260304820743
867,99.03833459991664
868,98.94636444644578
869,98.95325527774293
870,99.02955570533783
871,99.08217044770915
872,98.98009439509696
873,98.91500506691328
874,98.95704370166915
875,98.94415013476396
876,98.93758874562891
877,98.91563325030157
878,98.94342517214358
879,98.93065487769871
880,99.02274604523316
881,98.88343951378995
882,98.91075098542917
883,98.93694064196619
884,98.95370421022564
885,98.95204477765526
886,98.92218281647985
887,98.95244203363963
888,98.95522358100484
889,98.94413724148473
890,98.92708748506443
891,99.00952298109458
892,98.91971542040024
893,98.90625394881391
894,98.94138876231732
895,98.96059496252916
896,98.89155696618246
897,98.82689174926121
898,98.89408313163048
899,98.93158268301829
900,98.85974425866766
