# DataSetAbscissaRange = 1800 220
# DataSetAlias = Sample51.Sample
# DataSetHistoryRecord000 = Michael Matus
# DataSetHistoryRecord001 = Created as New Dataset
# DataSetHistoryRecord002 = thu jul 21 11:17:53 2022 Coordinated Universal Time (GMT+0:00)
# DataSetHistoryRecord004 = MM04 BG20 535341 d=2.0 mm Q50mm
# DataSetHistoryRecord005 = Lambda 1050+
# DataSetHistoryRecord006 = 1060L2011032
# DataSetHistoryRecord007 = PerkinElmer UV WinLab 7.1.0.68 / 2.02.11 Lambda 900 UV/VIS/NIR, May 23 2018 11:23:04
# DataSetHistoryRecord009 = 3350/servo 1800.8/servo 840.8/1
# DataSetHistoryRecord010 = UV/VIS
# DataSetHistoryRecord011 = CommonBeamDepol,RBeamAtt,SBeamAtt,uv/vis/nir detector, TDS WB InGaAs Detector
# DataSetHistoryRecord012 = Program
# DataSetHistoryRecord013 = Program
# DataSetHistoryRecord014 = 3350/servo 1800.8/servo 840.8/1
# DataSetHistoryRecord015 = 3350/0.2 1800.8/0.2 840.8/1
# DataSetHistoryRecord016 = 3350/0.2 1800.8/0.2 840.8/1
# DataSetHistoryRecord017 = 3350/1.00 1800.8/1.00
# DataSetHistoryRecord022 = 1800.8 840.8
# DataSetHistoryRecord023 = Front
# DataSetHistoryRecord024 = off
# DataSetHistoryRecord025 = S:100 R:0.1
# DataSetInterval = -1
# DataSetName = Sample51.Sample
# DataSetNumPoints = 1581
# DataSetXAxisLabel = nm
# DataSetYAxisLabel = %T
# Ignored_DataSetChecksum = 00 00 00 00
# Ignored_DataSetDataType = 10 00
# Ignored_DataSetFileType = 00 00
# Ignored_DataSetOrdinateRange = 00 00 00 00 00 00 00 00 5D 0B F1 D4 19 F9 58 40
# Ignored_DataSetSamplingMethod = 00 00
# Ignored_DataSetXAxisUnitType = 0B 00
# Ignored_DataSetYAxisUnitType = 02 00
nm,%T
220,3.269379792050488E-05
221,3.213099922542467E-05
222,3.838333010438839E-05
223,3.913984397246095E-05
224,3.798398832611471E-05
225,3.935018377035079E-05
226,3.0790129349466124E-05
227,3.256854896423632E-05
228,3.422901154339411E-05
229,3.7071603137367345E-05
230,4.079745752766856E-05
231,3.777150146757739E-05
232,3.4345987705545984E-05
233,3.099310772558326E-05
234,3.250738055475561E-05
235,3.500135624283719E-05
236,3.76230641855424E-05
237,3.40656104947596E-05
238,2.2566846273221144E-05
239,2.3041036973638894E-05
240,2.7621024705405648E-05
241,3.085717293042023E-05
242,3.188089836534477E-05
243,2.2872736590683268E-05
244,2.1285806437468416E-05
245,1.9726957698192763E-05
246,2.4960588126409805E-05
247,2.7254111471377353E-05
248,2.4525221317461878E-05
249,2.9319854404079915E-05
250,3.0994394244464963E-05
251,4.659610084164608E-05
252,9.401505507919622E-05
253,0.0003200217681822963
254,0.0012216197980147248
255,0.003919953804635066
256,0.010573119022466241
257,0.024386576200457293
258,0.04848020162545253
259,0.08205894477921856
260,0.12449792086036773
261,0.17769224417103424
262,0.2530053847462432
263,0.3871889726784313
264,0.595263424651801
265,0.8661845236132285
266,1.1663112509952478
267,1.5045586667298823
268,1.8833825496081222
269,2.2798139336769943
270,2.708619288721654
271,3.2024371335951574
272,3.745781336220573
273,4.264410538087176
274,4.859528623505076
275,5.536205919170801
276,6.245907295080568
277,6.964381686921669
278,7.694204883457632
279,8.508993115713759
280,9.295492834926671
281,10.099608375518041
282,10.879922041733812
283,11.796488613264277
284,12.730889411766086
285,13.554381609483142
286,14.409371037580806
287,15.241516655136417
288,15.81610489059744
289,16.251760168408282
290,16.09340849371004
291,15.45412080626733
292,15.203009143652352
293,15.923104826838497
294,17.21997819467518
295,18.97699766924599
296,20.884192115408403
297,22.59834168609201
298,23.907756868645855
299,23.417728729359442
300,21.555148329359604
301,19.242186144295125
302,18.786810477151285
303,19.68537488809245
304,21.115473558486432
305,22.49856966529592
306,24.256930904875766
307,27.079127079779507
308,30.212708192787126
309,32.63020382314315
310,34.11633798995281
311,35.56930897609885
312,36.558198857635524
313,37.148518880679646
314,37.64079251198596
315,38.871791001897684
316,39.39166090893252
317,40.59116759274446
318,41.711807701264725
319,42.82462068554243
320,43.237490530442926
321,43.39599704985252
322,40.83110501327628
323,37.190204479332074
324,32.90662112867169
325,28.030120286373204
326,23.600673398788683
327,19.906993238106427
328,17.62126665023733
329,16.277272088065043
330,15.807626356637448
331,16.02510928500148
332,16.909829533920792
333,18.868753344878648
334,21.38616361508636
335,24.592370900766706
336,28.203145607528658
337,31.83552099084239
338,35.17829115083865
339,37.446476731694226
340,38.068377670779455
341,37.676460452040885
342,37.19788901079904
343,37.16790600620902
344,36.01920909435552
345,33.85495246358946
346,25.59521356284218
347,11.590122470157732
348,2.99214284726965
349,0.6664341277909617
350,0.3068644330672469
351,0.29745599510646004
352,0.33152019258250137
353,0.4211443900836451
354,0.5107678288519747
355,0.37020882879155764
356,0.14085987587025794
357,0.03808850980917485
358,0.021663157437234976
359,0.07453907684830702
360,0.4109910196542204
361,1.959149061366348
362,6.656363983962452
363,15.887820078808474
364,28.54264099489534
365,42.374456198480615
366,55.18696104434105
367,68.42431599206958
368,78.67104854483634
369,84.76890075109777
370,89.15783867263217
371,90.54816236387096
372,90.43728105777456
373,92.4769884142296
374,94.05651251137375
375,92.85286931863126
376,94.23066715329786
377,97.80096952974985
378,99.8922016481351
379,87.01692045868892
380,86.4359339034899
381,86.58970261898851
382,84.98127568684288
383,82.5916061052862
384,81.34425928207224
385,85.67314249413039
386,85.96450709871672
387,87.98198462967119
388,88.16445010997856
389,88.2343117296589
390,89.75156833179514
391,89.3675421409346
392,89.80937223223586
393,90.4471582439088
394,89.3793535268282
395,89.69880148723934
396,90.23505886288002
397,89.57912956453453
398,89.60732613388046
399,87.65548288629901
400,86.59569181207092
401,84.59438667204434
402,82.14780151764793
403,81.07053589693332
404,82.21134912061984
405,83.82984563970496
406,84.67898686891517
407,86.01347151039647
408,87.6788934313254
409,88.43563578387806
410,89.29726336914852
411,89.20464589160805
412,89.51104349026456
413,89.21234316372163
414,88.56476370168092
415,87.53394192385781
416,87.07074381413119
417,85.16954691544085
418,83.57899022605069
419,82.48221183955293
420,82.04527869612426
421,81.23529599390112
422,79.72044190950247
423,77.56437499460762
424,78.51438258802264
425,78.5547654576932
426,80.3115882601008
427,80.91186490014358
428,70.70444576131524
429,43.426735667783
430,25.160334084750772
431,26.06877476443875
432,31.467516206821678
433,34.21755839591681
434,33.493261259359905
435,29.919292054075857
436,25.031902419586636
437,19.642032644422546
438,15.09883807536864
439,11.664952221539732
440,9.104929734101365
441,7.5176498624861114
442,6.698213586236236
443,6.312004045553654
444,6.262084244794348
445,6.261411731482124
446,6.3241632681557105
447,6.317428498054609
448,6.552614180766709
449,7.339890553841472
450,8.624341569509818
451,10.182255599997351
452,11.751514880233458
453,13.246975088513008
454,14.461241235459255
455,15.273529705783579
456,15.603321743443313
457,15.462144017092507
458,15.075942859106192
459,14.541068731701829
460,13.871855771527827
461,13.289781274397516
462,12.718297063639234
463,12.1970513352986
464,11.768046204097265
465,11.43891865309608
466,11.025817863526354
467,10.459575745459787
468,9.835161032374398
469,8.992612679307618
470,7.95276049171688
471,6.9910837080014225
472,6.38296936574039
473,6.558174077943116
474,7.605601007908996
475,8.936163502024081
476,10.192373943813115
477,11.539441426046627
478,12.97349070747869
479,14.013846235803607
480,13.941359618319202
481,12.758995385354982
482,11.489534286919708
483,11.345068165755864
484,13.01535768293117
485,16.538292057525698
486,21.35667347596225
487,26.917607726264176
488,32.55642322512307
489,38.282986535235246
490,43.62621201491149
491,48.03102577568869
492,51.58205940421622
493,53.4898012590128
494,53.62189552877308
495,52.723705763634335
496,50.792514829623784
497,48.31292273039986
498,45.15112233210931
499,41.82127147301965
500,38.553812442661226
501,35.19080343147587
502,32.01144036617512
503,28.982913197654796
504,25.326980968675233
505,21.56518960250484
506,17.64419779700476
507,13.505034575626528
508,9.663185088554116
509,6.563867801287065
510,4.421639780717234
511,3.1157660842804544
512,2.4784339153832438
513,2.4269929616034793
514,2.8501985043054217
515,3.676825578282993
516,4.7094920458852725
517,5.597975164604159
518,6.056800430884465
519,5.8261836778150125
520,4.608981029819237
521,2.8186786392613654
522,1.3182902750464052
523,0.5144336684506805
524,0.20545396197862587
525,0.10648666564629268
526,0.0930965518160375
527,0.15163122924396572
528,0.35326912868263455
529,0.8573341643715501
530,1.8607057133028724
531,3.5863499637466276
532,6.172919184366
533,9.560100844832306
534,13.668713740108931
535,18.35906187667066
536,23.221159139862255
537,28.167623031028395
538,33.585310905980805
539,38.925006996120246
540,44.88293329722931
541,50.85065919609721
542,56.663294228975246
543,62.159592800664996
544,66.4925446227868
545,69.99748877593781
546,72.42115645867543
547,74.95811187346168
548,76.60768268259542
549,77.13537275868345
550,78.19578007250846
551,78.4445781525232
552,77.99161072047912
553,77.71874098091655
554,77.57085456176553
555,76.6965949396203
556,75.86259602368833
557,75.31371428405943
558,74.35748955003166
559,73.04254746652809
560,70.5354685463149
561,67.14730242006719
562,60.5569358896485
563,56.52916410793699
564,49.318716980938795
565,38.64917010249614
566,26.02665870342814
567,13.4192555978989
568,5.040726375441339
569,1.3558873838492755
570,0.6829990724371349
571,0.26949775456802216
572,0.005531334144465317
573,0.0009893614496588445
574,0.00026172021870417544
575,0.00011664228123005255
576,6.8294378849556E-05
577,5.427008797632703E-05
578,2.7735222359004325E-05
579,2.6437514667946005E-05
580,3.583414666130478E-05
581,3.55598659702017E-05
582,3.315439256624102E-05
583,3.09513309853938E-05
584,2.5153956868492296E-05
585,1.4653049955934299E-05
586,3.688087078386096E-05
587,2.968283220418521E-05
588,4.0581790754549686E-05
589,0.00011151255884888293
590,0.0004953575316233651
591,0.0025567079558156017
592,0.011582691743995531
593,0.04304307594140052
594,0.1311546116447789
595,0.3340257541407063
596,0.7166886373339182
597,1.3488269753649014
598,2.275898133412524
599,3.608970831371503
600,5.4910879648724364
601,8.088348543808634
602,11.411991247695797
603,15.649610732079712
604,21.09853356755215
605,27.2654545835382
606,33.69368401638287
607,41.22555095699425
608,48.59578636491369
609,56.12882621437929
610,63.4573704728814
611,68.82292240176714
612,74.1632543798188
613,78.22695813801582
614,81.44047983761511
615,82.70247992284669
616,83.56759143023251
617,85.21145966351628
618,84.21505145128255
619,83.18091306635328
620,79.95612266409417
621,76.84065597049995
622,72.66611001828333
623,69.53598513367102
624,68.97309667900939
625,68.4347787658507
626,66.59872961903177
627,66.79218490605489
628,68.06694572955654
629,69.61250875659958
630,72.02970152565206
631,73.89714348899072
632,74.85248585252495
633,78.34150290398829
634,79.345014330869
635,81.68360033305171
636,82.42436438278175
637,83.34029224212897
638,83.72848717320758
639,85.02471172180233
640,85.82511953032302
641,86.04406110517085
642,86.8182851135245
643,88.21032842873208
644,87.69977460255664
645,89.48925909955668
646,90.52366023447846
647,90.85441460857085
648,91.24139364841997
649,90.80578245338216
650,92.34744794142568
651,90.65657123748582
652,91.69033755976544
653,92.53548921526225
654,91.77010778996542
655,92.63435348568181
656,92.00056637471874
657,91.04036773511218
658,91.72070289830295
659,90.86093635319507
660,90.77854392711153
661,90.06163160531943
662,89.42342623390644
663,88.75216795418739
664,86.83207693664514
665,84.20003408761147
666,81.90332668582607
667,78.42767682189425
668,74.88355333375549
669,71.13572872180485
670,67.56802221582252
671,62.9842568865088
672,58.84296185805301
673,54.68551804565255
674,50.939173704831184
675,47.63760168229802
676,43.93796245459862
677,40.789037791100625
678,37.93747351500142
679,35.49558037950566
680,33.87621722628742
681,32.815846527517294
682,32.84973987878423
683,34.341660881337944
684,37.043473201063165
685,40.56705281054682
686,43.88092412467316
687,46.64533342858606
688,49.0614078601478
689,52.09681676787454
690,54.635095651597275
691,56.256206997064936
692,59.36249072901503
693,62.51879319677626
694,65.18477828918508
695,67.91764165605102
696,70.7029743038973
697,72.96803710016087
698,75.0289343447788
699,77.42240420353905
700,78.8466411209436
701,80.12591921145183
702,81.98505711172426
703,83.10847692804695
704,83.86562188293627
705,84.07396450190771
706,84.59256564954586
707,85.69826618045855
708,85.59793059269457
709,85.3839350559181
710,85.43809868561569
711,84.97772087036805
712,84.79368986352559
713,84.38026844206249
714,83.05698796709694
715,82.06313007060142
716,80.68761724083446
717,78.63707648062642
718,77.33823771167168
719,75.72526451667659
720,72.65558322166774
721,69.34559576158702
722,65.70330637216163
723,61.07841987321335
724,55.12171221249336
725,48.538572489113314
726,40.57380378281274
727,31.44270755613264
728,22.030252888889798
729,12.991548181603315
730,6.267363620911818
731,2.363752521110905
732,1.3879129763658078
733,0.5879012817589375
734,0.0425920725540367
735,0.013753992614891089
736,0.007360082149471119
737,0.005635205104407999
738,0.004561210973817636
739,0.0033474598871576604
740,0.002312207688541001
741,0.0018124720003129687
742,0.0019202002210019487
743,0.002623936540218576
744,0.003316931225659989
745,0.0030710535575496564
746,0.002192907914061686
747,0.0015429747820877712
748,0.0015756477999912474
749,0.0025467513227745444
750,0.00507632261197273
751,0.01018641406594333
752,0.018790210450520522
753,0.03228899983296698
754,0.05583845416006053
755,0.10151338964310878
756,0.19551285392323214
757,0.3851015975384212
758,0.7462474901305869
759,1.3410864646736127
760,2.2427180318040056
761,3.4278007075688546
762,4.910944865291218
763,6.735422466350246
764,8.995125634344955
765,11.966032601209216
766,15.564664566720474
767,19.377064892524878
768,23.61006327365014
769,27.674684238154285
770,31.36877913325455
771,34.61745399340204
772,36.688261217886804
773,38.15870251036569
774,38.56611932875772
775,37.60830415474992
776,36.002158179227706
777,33.454463099158495
778,30.453051598242475
779,28.03833734041642
780,24.76960173640779
781,21.83324961255537
782,18.533857652684112
783,15.549627830089719
784,12.289578423688537
785,9.086043237965729
786,6.317127159209019
787,4.01378437369357
788,2.3364163758039225
789,1.2043787881390506
790,0.5424002715899217
791,0.34250080855124854
792,0.15931764229746354
793,0.03086842610478618
794,0.011942131169619518
795,0.005336636214511584
796,0.0027188346335780505
797,0.0017223965449000918
798,0.0012623933927693755
799,0.000911241220817024
800,0.0005142607188206988
801,0.00028605639889101324
802,0.0001918176368982609
803,0.00012020336364807316
804,0.00018056541964805103
805,0.00010872033119707686
806,0.00020114659964146287
807,0.0007602736451239803
808,0.0025113206123422264
809,0.007898199544661361
810,0.0207418473448684
811,0.049290671913738524
812,0.10329610040058412
813,0.20734777481556216
814,0.3871364119180023
815,0.6730900836020631
816,1.085149185119598
817,1.6659694372740976
818,2.470523146048812
819,3.4283333869891477
820,4.683096723256868
821,6.303961187977851
822,8.22679103701015
823,10.402872972681916
824,12.984252436528926
825,15.509070232443968
826,18.75216494416613
827,21.930148462992467
828,25.17173217586975
829,28.593780290151937
830,32.20542201840573
831,36.26419444561304
832,40.10208832655094
833,44.76750924067823
834,48.86054226665021
835,53.10423868569663
836,57.9198172650546
837,62.93501493124373
838,66.13198921207857
839,70.81634216197486
840,72.13973862163677
841,57.06632729961279
842,60.26448942508058
843,62.82355807280858
844,55.10232081553421
845,56.25532434672276
846,58.26210875835345
847,58.68733304653514
848,52.724570593100886
849,52.93925906198817
850,53.20116199712118
851,50.089695193605046
852,46.33987101167121
853,45.46092903811438
854,46.14524086797692
855,41.355951850541054
856,36.91607778413697
857,33.95501662490222
858,29.71848068221041
859,26.26254713522852
860,25.087148829920693
861,22.212254004274577
862,20.345467329999927
863,17.57787621894175
864,16.328136067537706
865,14.051909990812575
866,12.101537112219317
867,10.740419123408302
868,9.775314229410231
869,8.429156143010989
870,8.074636178650207
871,8.38801578240778
872,7.479241973390405
873,6.830494315683206
874,6.9355370753837144
875,6.984297108566784
876,7.180106844507568
877,7.654099953636728
878,8.098068351459673
879,8.730499247096954
880,9.552417937316173
881,9.910520154569408
882,11.100653344491361
883,12.234729815530638
884,14.029537955259677
885,15.351772700994982
886,16.67212203934345
887,18.816262767097097
888,19.11691732909178
889,21.132583726088903
890,22.142420791076063
891,24.19910221850605
892,26.2493235421925
893,28.160204941142357
894,30.407755621125553
895,33.538151104178105
896,35.17585685310355
897,35.69655597679423
898,38.105305496858136
899,40.58466442397295
900,40.840490643288256
901,43.346020167590545
902,45.406134468854944
903,46.68543574069625
904,48.93725566550724
905,52.46581831489955
906,53.36830033884309
907,55.96911928365802
908,57.07369682094817
909,60.2269062669312
910,61.72969994225686
911,62.36531198162284
912,63.38198556019968
913,64.63799997623917
914,67.31754790475335
915,69.5741855686725
916,71.09784187788502
917,72.17786511688384
918,73.70507519552645
919,73.98943386608646
920,75.69369543936092
921,77.31856221958914
922,78.64109954585929
923,77.19928877274508
924,79.346234559899
925,81.81179926483622
926,83.16366346297335
927,83.48933453061647
928,82.4272907778957
929,83.44376083440281
930,84.33326934537061
931,84.47329273586794
932,85.38323996215837
933,87.12529820239403
934,85.4077005648055
935,85.1413738212007
936,86.87601984309947
937,87.31712825689829
938,87.76828921921978
939,87.6248269297503
940,88.04728320297338
941,88.1482916348894
942,87.42803913651659
943,88.31267884060843
944,88.97813127919478
945,87.17543674746658
946,87.53525074696411
947,88.48746027408323
948,87.58012486738266
949,86.71014178921807
950,87.72395385744738
951,87.26374415497172
952,86.28127919087687
953,86.07300254569475
954,87.84068465778523
955,88.28274269541302
956,88.44026746787851
957,88.32289468513738
958,86.46183798037858
959,86.12086827378963
960,86.09725029199686
961,85.35313700795058
962,86.16195696775371
963,85.8254482553172
964,85.43257628208546
965,85.6282993301038
966,86.26072864400953
967,85.4425669059937
968,85.31783496366768
969,86.14571901273973
970,85.4209825018063
971,84.112908640253
972,83.66484543990875
973,84.28720031607735
974,84.35314899272043
975,84.4521916833101
976,84.43198833143057
977,84.67485755804792
978,84.2011426767188
979,83.8505339998007
980,83.70568520737348
981,83.85784865976427
982,82.96612720070746
983,83.04008572981046
984,83.0232222763016
985,82.33714885147927
986,82.08948746857901
987,82.44670762776572
988,82.44765581383142
989,82.03433773007806
990,82.40452866992914
991,82.55837882527626
992,81.93413184793896
993,80.76553605364168
994,80.8784033817166
995,81.17997838618557
996,81.30693097656618
997,81.25313528574463
998,81.28437982268191
999,81.17110935520209
1000,80.98136846235033
1001,80.82687312170606
1002,80.83227227170188
1003,80.8938326237243
1004,80.77106584539108
1005,80.73336269056178
1006,81.11750684616393
1007,80.67543141029813
1008,80.22442956879215
1009,80.50509341844673
1010,81.08233874781442
1011,81.16864325738334
1012,80.96209998210809
1013,81.1313136011478
1014,81.28830779733343
1015,81.09977618422101
1016,81.01807365359703
1017,81.35932278473305
1018,81.48248432119054
1019,81.32465923183814
1020,81.39199831062459
1021,81.54939017863818
1022,81.73225707276572
1023,82.09358692790354
1024,82.41592663099794
1025,82.93590350155236
1026,82.88513995141791
1027,82.63118920172002
1028,82.80262309541237
1029,83.59077491359116
1030,84.0760020901831
1031,83.87655373521706
1032,83.82022510447524
1033,83.84428732437047
1034,83.65244213008572
1035,83.90638263527754
1036,84.36121565720704
1037,84.5910948085388
1038,84.86670732983757
1039,84.879364682789
1040,84.76411065454673
1041,84.76799891258554
1042,84.76506085240575
1043,85.15889679438602
1044,85.38702531218635
1045,85.46545381801587
1046,85.3971923263575
1047,85.51483861887095
1048,85.5170004936311
1049,85.96179085356846
1050,86.16239993777832
1051,85.99380682672611
1052,86.09542970641787
1053,85.81325850626595
1054,85.35145517576008
1055,85.32674004081309
1056,85.82821629359078
1057,85.46683807177638
1058,85.21051074857118
1059,85.07997215174083
1060,84.97705909788807
1061,85.20042469574508
1062,85.44184869974114
1063,85.72555192159513
1064,85.66593354873532
1065,85.06657048080166
1066,85.16407191396458
1067,84.91519922251362
1068,85.06856972602353
1069,84.70274309936495
1070,84.64274630894496
1071,85.04134125796031
1072,84.79923728541715
1073,84.76254801252523
1074,84.6749424359469
1075,84.69844606188943
1076,84.89202332810926
1077,84.83140236681923
1078,84.95123866234866
1079,84.89320176659284
1080,84.93236627518796
1081,84.69885275193178
1082,85.1343602265689
1083,84.93587183535986
1084,85.2369238910229
1085,85.68207430145513
1086,85.76734227424214
1087,85.8451785538425
1088,86.07805990531574
1089,86.070511829052
1090,85.99019552554672
1091,86.23615849220087
1092,86.17870251386948
1093,86.2898611344116
1094,86.65516584625567
1095,86.77932086403182
1096,87.55185218763752
1097,87.08972611378093
1098,86.96888565133523
1099,87.46845322186388
1100,87.68345336737615
1101,87.43675948342316
1102,87.37593565079838
1103,87.81297898635135
1104,87.9665292596977
1105,87.55993099908817
1106,87.76647978923309
1107,88.6279216740599
1108,88.14280692551687
1109,87.88695219816233
1110,88.11495392228235
1111,88.31552767525692
1112,88.3504974887627
1113,87.72217350873551
1114,88.05916947068906
1115,88.67819554374697
1116,88.47566163844165
1117,88.20952463752941
1118,88.80909634212767
1119,88.64785373539318
1120,88.36974188171851
1121,88.62145294490581
1122,89.44037272969446
1123,88.93269089723115
1124,88.54191058302763
1125,88.63645468275517
1126,89.41887532458024
1127,88.86713801358063
1128,88.725698103237
1129,88.66249306262165
1130,89.42363360641461
1131,89.36973674159889
1132,89.34452340917014
1133,89.3865549959506
1134,89.49699114248406
1135,89.10452183480098
1136,88.90853115537925
1137,89.37476522086429
1138,89.3491408047714
1139,88.70601025681395
1140,89.10246285323564
1141,89.48763081472111
1142,89.52952664675776
1143,89.10110421794077
1144,89.36110662327627
1145,89.42007714450205
1146,89.27835505798407
1147,88.88170486587406
1148,89.15415361640736
1149,89.38840326053861
1150,89.00733648739502
1151,88.89307158304807
1152,89.2654708796151
1153,89.59611777570277
1154,89.53254625225814
1155,89.72754355326589
1156,89.63389830047991
1157,89.13978127746128
1158,88.85026714801812
1159,89.00137344471617
1160,89.15795275803754
1161,88.94790804474127
1162,89.17404997665237
1163,89.03831178670106
1164,89.32570859558325
1165,89.37820783928917
1166,88.74483825513605
1167,88.94667232723904
1168,88.73045477766787
1169,88.9630127344618
1170,89.0929554756391
1171,88.91719686767134
1172,88.97987930294403
1173,89.34188369390259
1174,89.24178805978322
1175,88.98078720174854
1176,88.91377922680415
1177,88.83631652741686
1178,88.71311650732729
1179,88.38781505664561
1180,88.44628144564454
1181,88.6458913810108
1182,88.47823318706769
1183,88.4080178785396
1184,88.95526573260912
1185,88.52850147922862
1186,88.17901251295588
1187,88.23740407931324
1188,88.27097514073313
1189,87.68840725104351
1190,87.36361156308045
1191,87.54158859615897
1192,88.02109131197051
1193,87.76497695872757
1194,87.10233263439989
1195,87.13573893793513
1196,87.42769786218354
1197,87.4759597298835
1198,86.75549180196194
1199,86.64273690001326
1200,86.39851878336403
1201,86.17392096767777
1202,86.04210636375478
1203,86.16898905014439
1204,86.09169096207378
1205,85.63987756735438
1206,85.26942719555642
1207,85.25834996016222
1208,85.11722895863252
1209,84.82844729717132
1210,84.45373511803973
1211,84.14712976902577
1212,84.03832118706585
1213,83.92243227089534
1214,84.03574399630872
1215,83.58428886737558
1216,83.25430819337305
1217,83.26275149250546
1218,83.3112718799716
1219,83.13398629447425
1220,83.05816912403583
1221,83.10163872187438
1222,82.78297054991205
1223,82.61170114750149
1224,82.35240117639994
1225,82.55182376828397
1226,82.60938943482799
1227,82.68070627911953
1228,82.95260253383921
1229,83.14743235204888
1230,82.81279443739649
1231,82.53074430198843
1232,82.78240578912019
1233,82.79637619307883
1234,82.90430561071082
1235,83.46694227296139
1236,83.2929811939201
1237,83.17726372776806
1238,83.57881415279535
1239,83.70112934356567
1240,83.87127895302562
1241,83.87529231682504
1242,84.07904076393456
1243,84.4081520295277
1244,84.17381909321068
1245,84.0592494489939
1246,84.17651825055361
1247,84.18889591719224
1248,84.1000659833816
1249,84.38151441567832
1250,84.74910918244409
1251,84.42574608974478
1252,84.270041887155
1253,84.58667567647824
1254,84.9070735295489
1255,85.0885072957312
1256,84.87619551058444
1257,84.85047159960806
1258,84.75531485725877
1259,84.928310182578
1260,84.80329372285124
1261,85.05256429500977
1262,85.29878353116072
1263,85.39326473628685
1264,85.22480444182573
1265,85.51619882884086
1266,85.7315136593383
1267,85.53921425969108
1268,85.369203811993
1269,85.59085648710119
1270,85.50806356788678
1271,85.72440618354456
1272,85.76789525519935
1273,85.98919669505672
1274,86.12961539577648
1275,85.59737036189979
1276,85.52375714969392
1277,85.79396304470389
1278,86.08700335855602
1279,86.0174445686102
1280,85.72045036075593
1281,85.68874589698024
1282,85.54160957627238
1283,85.65602486037642
1284,85.88252909251443
1285,86.11558013632822
1286,85.74905517647431
1287,85.42422268530126
1288,85.55509073013545
1289,85.65444443353157
1290,85.3883014421924
1291,85.34348526792704
1292,85.40594521741382
1293,85.56522049345968
1294,85.25988155507615
1295,84.83790242135915
1296,85.1470298447499
1297,85.1763191565001
1298,84.93029922839796
1299,85.08643097901967
1300,84.72288977341314
1301,84.11179322316869
1302,84.56504047131784
1303,84.72991746514981
1304,84.54678074498219
1305,84.07673707380874
1306,84.08171135564872
1307,83.80488256847394
1308,83.52996563329073
1309,83.52262733120412
1310,83.42763609673578
1311,83.35481681365795
1312,83.22652496670918
1313,82.81606886556546
1314,82.69896954294825
1315,82.52394106616838
1316,82.09358863933276
1317,81.85952836209988
1318,81.6869419427668
1319,81.39622814726646
1320,81.08649420655348
1321,80.71515529311648
1322,80.50685262655975
1323,80.44580707225713
1324,79.81105832619798
1325,79.36416933647662
1326,79.15308917051283
1327,78.84345846427281
1328,78.13058844407279
1329,77.93796388351598
1330,77.41010666755271
1331,77.17665206505819
1332,76.28865540899078
1333,75.8279034132498
1334,75.60096956070844
1335,75.12026261948716
1336,74.44750985907118
1337,73.61705082628818
1338,73.44258779402301
1339,72.73526617519728
1340,71.87782046399282
1341,71.46616836697378
1342,70.96737827497951
1343,69.89344963048882
1344,69.41250893618175
1345,68.97415277931431
1346,68.1567300659616
1347,67.21667756710153
1348,66.91290389554007
1349,66.39181849813205
1350,65.02253748121196
1351,64.13174677099134
1352,63.2073503321164
1353,62.72877116723604
1354,61.53387723753563
1355,60.944690596487725
1356,60.103795162751986
1357,59.02787553160702
1358,58.050558599318045
1359,57.1416184805419
1360,56.51690974119925
1361,55.34418266137303
1362,54.342169725661435
1363,53.44448318852017
1364,52.56707015875168
1365,51.47260556873964
1366,50.52556773023369
1367,49.85424387731462
1368,48.63464999546279
1369,47.89727894944546
1370,46.86913645080107
1371,45.912904046391276
1372,45.115703390466535
1373,44.21855099834737
1374,43.469113438731746
1375,42.80914880918535
1376,41.92980310223313
1377,41.09607391784938
1378,40.258028716133275
1379,39.48127627840077
1380,38.53536673344814
1381,37.75500723266928
1382,37.12830737251075
1383,36.26414314222478
1384,35.371974926827285
1385,34.771295118906146
1386,33.91269885711305
1387,33.14774629859853
1388,32.50045220022635
1389,31.896937305808954
1390,31.05029636590117
1391,30.367182639834972
1392,29.82173289826109
1393,29.19344237493141
1394,28.557862618171768
1395,27.927536035936157
1396,27.449516760748466
1397,26.74982320233478
1398,26.209659291760946
1399,25.70893448442787
1400,25.24090400792466
1401,24.632729610130873
1402,24.305091402450174
1403,23.890570066283733
1404,23.357760865476017
1405,22.934595536003
1406,22.584738406913207
1407,22.20682073994503
1408,21.810065601155966
1409,21.502712715775633
1410,21.175136702659348
1411,20.91819232907996
1412,20.61195841412488
1413,20.29712957255808
1414,20.104586935932005
1415,19.879473106594062
1416,19.585954955554776
1417,19.389373486335998
1418,19.30372203720927
1419,19.11333694053756
1420,18.90113104551119
1421,18.79660575911995
1422,18.64385870801802
1423,18.4862691687661
1424,18.385441897123787
1425,18.29486558249638
1426,18.096749852706168
1427,17.995622159983338
1428,17.9626657892525
1429,17.916831989256938
1430,17.78048707473178
1431,17.77247345868569
1432,17.651538203567302
1433,17.527899205549275
1434,17.41915871211023
1435,17.456151670075318
1436,17.358547635926964
1437,17.205244786868175
1438,17.153715260354048
1439,17.1303163085315
1440,17.049479139134288
1441,16.91144528604431
1442,16.825518168522105
1443,16.789573311640428
1444,16.656087887935442
1445,16.523723871378586
1446,16.44537648737779
1447,16.315058064661194
1448,16.165905259860544
1449,16.021937335959976
1450,15.897893924957968
1451,15.726290834218783
1452,15.525505636290953
1453,15.409180401866612
1454,15.221343706078605
1455,15.000326136455246
1456,14.760257069511923
1457,14.55054366493366
1458,14.377416665041373
1459,14.146754273201362
1460,13.882598503874387
1461,13.62225000800441
1462,13.366214138617224
1463,13.084727125810216
1464,12.805801755988519
1465,12.56512828221589
1466,12.263199717307707
1467,11.962151360528237
1468,11.691041976369783
1469,11.387251938961072
1470,11.109746681382104
1471,10.826798774138881
1472,10.50866753552996
1473,10.181399078935598
1474,9.869753643884643
1475,9.578145011772731
1476,9.29242591411982
1477,8.980931930948445
1478,8.729541261875115
1479,8.46804767421291
1480,8.192143295873231
1481,7.930872053786661
1482,7.6789599190656315
1483,7.413978998444115
1484,7.174911140488979
1485,6.955084751692603
1486,6.699647470070234
1487,6.457618614995697
1488,6.250028976378111
1489,6.0586075865917595
1490,5.84317250718854
1491,5.623807102200285
1492,5.455542374700293
1493,5.296774507883453
1494,5.1190475313355925
1495,4.945375315259228
1496,4.791273751393484
1497,4.651531323449922
1498,4.521429622139948
1499,4.381305117957337
1500,4.258187441647849
1501,4.144284014056738
1502,4.0152596711254285
1503,3.911415056139296
1504,3.827017197232142
1505,3.7432531358714036
1506,3.6610782662351253
1507,3.589240509263978
1508,3.519980116240561
1509,3.4708836079888985
1510,3.399103288418219
1511,3.351760508106829
1512,3.303985249215958
1513,3.279093906024593
1514,3.2576322902454082
1515,3.22235925082515
1516,3.1935531114137015
1517,3.176943593843186
1518,3.182011303219861
1519,3.171371017488589
1520,3.169960470208899
1521,3.1812182799688165
1522,3.2011093630642597
1523,3.217533070780086
1524,3.241926913520923
1525,3.2832550753493805
1526,3.3042095891939924
1527,3.3380049715817406
1528,3.375357524137592
1529,3.4336470685297082
1530,3.486565679642596
1531,3.540446739383803
1532,3.611295123495164
1533,3.700488619779068
1534,3.7450873737654633
1535,3.8349887114985437
1536,3.945579005222007
1537,4.028756354235706
1538,4.1336732864379
1539,4.250977281316136
1540,4.370361127485964
1541,4.478795896944954
1542,4.618798067650622
1543,4.756135169552202
1544,4.888959133607642
1545,5.029429717569373
1546,5.17433633310531
1547,5.373221354398897
1548,5.520654601186301
1549,5.668118102049944
1550,5.862278818098871
1551,6.0626921484333645
1552,6.246760063397604
1553,6.464617467835638
1554,6.67810801813865
1555,6.852376521748468
1556,7.054035674071627
1557,7.304995420919122
1558,7.537041986194623
1559,7.722785040930384
1560,7.945031812458393
1561,8.206945755010162
1562,8.47620760704222
1563,8.64468197599289
1564,8.927981008171365
1565,9.220551732870078
1566,9.435770651488065
1567,9.732813071553577
1568,10.048638655846464
1569,10.307974535080392
1570,10.581935139050135
1571,10.879600120592524
1572,11.097118983950388
1573,11.406454733285914
1574,11.581603304548109
1575,12.029672941523474
1576,12.344901956108515
1577,12.6245232249313
1578,12.80860598013247
1579,13.283054030282223
1580,13.581086121015925
1581,13.866918304022413
1582,14.193463745544449
1583,14.547958861554616
1584,14.946939099704066
1585,15.210665560039196
1586,15.595206547948454
1587,16.09782429774784
1588,16.420183517891253
1589,16.728570073480054
1590,17.250737872266473
1591,17.536445080914934
1592,17.8976001793301
1593,18.367915610942973
1594,18.758060216280075
1595,19.08988296299237
1596,19.387082949468862
1597,19.870862923098528
1598,20.432114329639425
1599,20.787491203428257
1600,21.064267314865663
1601,21.819614529877107
1602,22.169368479969837
1603,22.537145903131353
1604,23.026486780907568
1605,23.56817713976008
1606,23.91945197278296
1607,24.383596117704336
1608,24.735739153850776
1609,25.235374803030165
1610,25.66345663003301
1611,26.083392809024087
1612,26.666852208396747
1613,26.95384244105546
1614,27.41755628846264
1615,28.007245535125634
1616,28.540080783371323
1617,28.67655203449693
1618,29.166629435747186
1619,29.755412807972576
1620,30.169755833072426
1621,30.36577144533159
1622,30.73491165071639
1623,31.36635672340645
1624,31.795754752414535
1625,32.134934178502206
1626,32.53591349200234
1627,33.16464875448595
1628,33.5407126113815
1629,33.93704994309461
1630,34.436277303165085
1631,34.945071910706545
1632,35.29947509475127
1633,35.67552571358221
1634,35.98641850953402
1635,36.44453364818463
1636,36.83491939188486
1637,37.14076054474462
1638,37.55634564398375
1639,38.136251588918455
1640,38.60155518306643
1641,38.868915529964326
1642,39.39736324718676
1643,39.767504500965515
1644,39.94701106411924
1645,40.57657290111216
1646,41.25048839067553
1647,41.59243291171062
1648,41.71226518446458
1649,42.245239026423185
1650,42.78428323231631
1651,42.94690955586046
1652,43.466303865585175
1653,43.91617982904615
1654,44.08364940992557
1655,44.57384432623318
1656,45.11249148178367
1657,45.50547192958856
1658,45.81975255899904
1659,46.189748725248165
1660,46.634549091367795
1661,46.927149624347415
1662,47.45352298697124
1663,47.98172277396898
1664,48.2971469262557
1665,48.73053544739615
1666,48.94154373133254
1667,49.18133921196523
1668,49.639010296330014
1669,50.12914404529103
1670,50.79005293254036
1671,51.34155250367638
1672,51.28186094376033
1673,51.42138753799984
1674,52.12624798509778
1675,52.659112326278986
1676,52.539494833789476
1677,52.67146217365121
1678,53.17150807075514
1679,53.594338626259095
1680,53.7844220496116
1681,54.18843917445203
1682,54.706536658402094
1683,55.07361321218499
1684,55.126792317268524
1685,55.42604323008457
1686,55.75126561663743
1687,56.012842215594794
1688,56.206768751829195
1689,56.43193725743756
1690,57.037675710026726
1691,57.34799822117359
1692,57.231047184542014
1693,57.80199365269437
1694,58.44993967306434
1695,58.49506931158942
1696,58.79718955836274
1697,59.30645094576153
1698,59.08421530493968
1699,59.3089401966553
1700,59.72984183102857
1701,59.9606338225109
1702,60.04616550184533
1703,60.343011751243935
1704,60.57638814583412
1705,60.74823007515937
1706,61.081657140879855
1707,60.88959357400554
1708,60.67439319122102
1709,60.94134246225133
1710,60.69966692410467
1711,60.65962784043016
1712,60.64623625394676
1713,60.215208420888324
1714,59.833594300091654
1715,59.6713643187763
1716,59.72562286682014
1717,60.03649564648328
1718,59.61562871351093
1719,59.266700091888325
1720,59.248630178726636
1721,59.28900848490888
1722,59.255556927268024
1723,59.694172382754175
1724,59.79649908724425
1725,59.753247734623685
1726,60.17446979940705
1727,60.72718613935019
1728,60.896018936429485
1729,61.15103779597305
1730,61.49266672732933
1731,61.73122874928324
1732,62.566756503792256
1733,62.87347046508492
1734,63.25004882325216
1735,63.93082507835685
1736,64.25175227427243
1737,64.45688734749659
1738,64.63982585061157
1739,65.29397109536562
1740,65.87549326481495
1741,65.51746936796559
1742,65.90679389462906
1743,65.67425721594327
1744,65.88377998790986
1745,66.19271952279796
1746,66.27570452860158
1747,66.60002104087343
1748,66.28570138671816
1749,66.29911420546864
1750,67.0148161633097
1751,66.87644878239357
1752,66.73179398118072
1753,66.45614496585783
1754,66.46734701933671
1755,66.51013618059143
1756,66.08961520017083
1757,66.6396756494196
1758,66.3842262580447
1759,66.26565547340168
1760,65.76620357319534
1761,65.79024397910682
1762,66.17808979811949
1763,65.77907748069828
1764,65.88445022885192
1765,65.63029943259777
1766,65.67403487630241
1767,65.22635548853154
1768,64.75403962295854
1769,65.03964001410951
1770,64.61486643642904
1771,64.53257834475507
1772,64.65646355255546
1773,64.59740237653399
1774,64.13157385240211
1775,63.97172215030233
1776,63.75488989662951
1777,63.792647127878034
1778,63.1136696574386
1779,62.819483664462574
1780,62.827760463889916
1781,62.248871441881526
1782,61.73168080343701
1783,61.98962768126187
1784,61.58082763971828
1785,60.80474351210084
1786,60.141754035528784
1787,60.110699205000465
1788,59.758069305601666
1789,59.27630050101368
1790,59.390430277027704
1791,58.77493403021372
1792,58.649398504752014
1793,57.78616185907538
1794,57.31348719731925
1795,57.22287929867228
1796,56.84846233092148
1797,55.911575289731886
1798,56.20651857033509
1799,55.67655852188666
1800,54.841636666630535
