# OperatorName = Michael Matus
# Modification = Created as New Dataset
# ModificationDateTime = thu jul 21 11:17:53 2022 Coordinated Universal Time (GMT+0:00)
# Parameters = 
# SampleDescription = MM04 BG20 535341 d=2.0 mm Q50mm
# InstrumentModel = Lambda 1050+
# InstrumentSerialNumber = 1060L2011032
# InstrumentSoftwareRevision = PerkinElmer UV WinLab 7.1.0.68 / 2.02.11 Lambda 900 UV/VIS/NIR, May 23 2018 11:23:04
# SlitWidth = 3350/servo 1800.8/servo 840.8/1
# LampsUsed = UV/VIS
# InstrumentAccessories = CommonBeamDepol,RBeamAtt,SBeamAtt,uv/vis/nir detector, TDS WB InGaAs Detector
# UvVisSlitMode = Program
# NirSlitMode = Program
# NirSlitWidth = 3350/servo 1800.8/servo 840.8/1
# UvVisIntegrationTime = 3350/0.2 1800.8/0.2 840.8/1
# NirIntegrationTime = 3350/0.2 1800.8/0.2 840.8/1
# NirDetectorGain = 3350/1.00 1800.8/1.00
# DetectorChangeAt = 1800.8 840.8
# SampleBeamPosition = Front
# CommonBeamDepolarizer = off
# AttenuatorsUsed = S:100 R:0.1
# DataSetChecksum = 0
# DataSetDataType = 16
# DataSetName = Sample51.Sample
# DataSetAbscissaRange = 220 1800
# DataSetOrdinateRange = 0 6.834071969769213
# DataSetInterval = -1
# DataSetNumPoints = 1581
# DataSetXAxisLabel = nm
# DataSetXAxisUnitType = 11
# DataSetYAxisLabel = A
# DataSetYAxisUnitType = 1
# DataSetSamplingMethod = 0
# DataSetFileType = 0
# DataSetAlias = Sample51.test
nm,A
220,6.48553462606659
221,6.493075768337672
222,6.415857348953838
223,6.407380909951249
224,6.420399436200248
225,6.405053235089849
226,6.51158848661998
227,6.4872015902488585
228,6.4656056421255705
229,6.430958632781927
230,6.389366901030443
231,6.4228357510442535
232,6.464123989874228
233,6.508734874215599
234,6.488018024550271
235,6.455915127153478
236,6.424545836518768
237,6.467683823600276
238,6.646529129528235
239,6.637497979163975
240,6.558760213677437
241,6.510643865601454
242,6.496469449207705
243,6.640681871460922
244,6.6719098914249235
245,6.704939886707477
246,6.602745185934915
247,6.564567972116122
248,6.610387064823906
249,6.5328381906360145
250,6.508716847096148
251,6.3316504235204345
252,6.026802595184514
253,5.494820479555354
254,4.913063937560284
255,4.406719050966863
256,3.9757968788770843
257,3.6128491690025606
258,3.3144355826404635
259,3.0858740720572504
260,2.9048379013104872
261,2.7503315276658897
262,2.5968702355803335
263,2.412077020095836
264,2.2252908014057287
265,2.062389580210679
266,1.9331855348675355
267,1.8225908733008944
268,1.7250614578326404
269,1.6421005963656876
270,1.5672520331457236
271,1.4945193870479767
272,1.4264575786010822
273,1.3701409921045316
274,1.3134058554576873
275,1.2567877646682766
276,1.2044044660766402
277,1.1571174351449702
278,1.1138362533592807
279,1.070121827713382
280,1.031727579553718
281,0.9956954661826036
282,0.9633742164913428
283,0.9282472471706236
284,0.8951412543880524
285,0.8679202914155035
286,0.8413549755267071
287,0.8169718150053524
288,0.8009004634935357
289,0.7890995952987028
290,0.7933519650221486
291,0.8109556971582725
292,0.818070443295914
293,0.797972245788529
294,0.7639674028207057
295,0.7217724957452833
296,0.6801823203321324
297,0.6459234291270957
298,0.6214611693994396
299,0.6304552291671452
300,0.6664489842505601
301,0.7157455884069064
302,0.7261469458042991
303,0.7058563100950075
304,0.6753991741712886
305,0.6478450910537328
306,0.6151641488690747
307,0.5673653396377509
308,0.5198103438936157
309,0.48638021340213755
310,0.46703759169292325
311,0.4489245720023638
312,0.4370152091487911
313,0.4300584969712604
314,0.42434124125012085
315,0.4103654489668287
316,0.404595707223933
317,0.39156845615270774
318,0.37974098834471715
319,0.36830647506193537
320,0.364139520093554
321,0.36255032899757533
322,0.389008866594895
323,0.42957143379479334
324,0.4827167090307074
325,0.5523750385366801
326,0.6270756051143969
327,0.7009943310680027
328,0.7539628768866833
329,0.7884183768650261
330,0.8011333380125414
331,0.7951990000798932
332,0.771860770453749
333,0.724256792645098
334,0.6698671149249256
335,0.6091995997897754
336,0.5497024504109675
337,0.497088038478118
338,0.4537252610066522
339,0.4265890379902828
340,0.4194356307674849
341,0.4239299041369071
342,0.4294817057357072
343,0.4298319058282878
344,0.44346582759999986
345,0.47037779166762816
346,0.5918412424068809
347,0.9359119749222808
348,1.524017676750065
349,2.176242771007352
350,2.513053445285213
351,2.526577273619446
352,2.47949001398597
353,2.3755689800180178
354,2.2917764649561283
355,2.4315532283445016
356,2.8512126986562087
357,3.4192060185260447
358,3.6642782440342514
359,3.127615990199953
360,2.386167667557573
361,1.7079325195611206
362,1.1767629379336269
363,0.7989356869770359
364,0.5445058449408982
365,0.3728958621579359
366,0.2581635203759618
367,0.16478953534793805
368,0.10418506142103356
369,0.07176344856178729
370,0.04984046805100317
371,0.043120359080776716
372,0.04365250293166789
373,0.033966321834211
374,0.026611128345046087
375,0.03220467124574755
376,0.025807734065212085
377,0.009656839902241865
378,0.00046841481083959025
379,0.06039629051542095
380,0.06330567127528042
381,0.06253375188167243
382,0.07067675383490002
383,0.08306408836235568
384,0.08967309116094202
385,0.06715530286885008
386,0.06568082262698849
387,0.0556062457690949
388,0.05470649687896012
389,0.05436249766724388
390,0.04695795375918732
391,0.048820186222259254
392,0.0466783393198531
393,0.04360507367290278
394,0.048762790878910334
395,0.0472133597536315
396,0.044624694027153744
397,0.047793161886375835
398,0.04765648175026982
399,0.057220913423114084
400,0.06250371385778108
401,0.07265845396141124
402,0.085404054889056
403,0.09113695617586792
404,0.08506822479286824
405,0.07660133352977305
406,0.07222434668323152
407,0.06543352382107481
408,0.05710493992382348
409,0.05337269759203256
410,0.04916185042712273
411,0.04961252642492875
412,0.04812337998008953
413,0.049575053728809326
414,0.05273903176672001
415,0.05782351346976955
416,0.06012774550267075
417,0.06971566310609778
418,0.07790288016419589
419,0.08363970154567202
420,0.08594640541181131
421,0.09025523276894365
422,0.09843030256655116
423,0.11033770265638054
424,0.10505078011501157
425,0.10482746372135976
426,0.09522178530275593
427,0.09198778885948311
428,0.15055327773203642
429,0.3622428147720158
430,0.5992835965256373
431,0.5838793802450879
432,0.5021375354548219
433,0.46575098290161376
434,0.4750425628815562
435,0.5240486868986796
436,0.6015061428435533
437,0.706813571509429
438,0.8210564723672014
439,0.9331170356927012
440,1.040723401457177
441,1.1239179055883313
442,1.174041008207785
443,1.1998327314461226
444,1.203281094048518
445,1.2033277373853848
446,1.1989969266045017
447,1.1994596648138347
448,1.1835854026370083
449,1.1343104158628246
450,1.0642740514597828
451,0.992156005287764
452,0.9299061451608139
453,0.8778832803947847
454,0.8397944291316888
455,0.8160605860869325
456,0.8067829361788781
457,0.8107302859524459
458,0.8217155172838482
459,0.8374036727600891
460,0.8578654352913961
461,0.8764821666948825
462,0.8955710353366331
463,0.9137451483079524
464,0.9292956351356341
465,0.9416150284442149
466,0.9575891859469721
467,0.980485930683126
468,1.0072185249262333
469,1.0461141116751524
470,1.0994820967239098
471,1.1554554977986897
472,1.1949772399070007
473,1.1832170597485776
474,1.1188664615445427
475,1.0488488936774485
476,0.9917246510649065
477,0.9378152129703086
478,0.8869431549084164
479,0.8534426520278555
480,0.8556948700012923
481,0.8941835196409462
482,0.9396975745075344
483,0.945192890354392
484,0.8855438922809256
485,0.7815093429268629
486,0.6704663922586731
487,0.5699635401928285
488,0.4873633144375895
489,0.4169941893596889
490,0.36025249438058715
491,0.3184781382420665
492,0.2875013227247827
493,0.27172901572013375
494,0.270657837814237
495,0.2779940723112957
496,0.29420028393079845
497,0.31593668871324176
498,0.3453314498558153
499,0.37860276766081014
500,0.41393266972862697
501,0.45357081779471975
502,0.4946947841811318
503,0.5378579638586534
504,0.5964165759728874
505,0.6662467191568135
506,0.7533980822886535
507,0.8695042995931843
508,1.0148797019086557
509,1.1828401743815433
510,1.3544166411374574
511,1.5064351543754353
512,1.6058226565720324
513,1.6149314831411608
514,1.5451248921590859
515,1.4345269717590736
516,1.3270259322692848
517,1.2519690326114241
518,1.2177567359278356
519,1.2346158278092672
520,1.336395079391596
521,1.5499544357109376
522,1.879988951676208
523,2.288670615620681
524,2.687285479377219
525,2.97270477155669
526,3.0310664044644193
527,2.8192113442740236
528,2.4518943128300195
529,2.066849869493368
530,1.7303223088654853
531,1.4453473333158995
532,1.2095094087632723
533,1.0195375265394642
534,0.864272351698141
535,0.7361495144307706
536,0.6341161052054849
537,0.5502498000878195
538,0.4738506269952758
539,0.40977130070265155
540,0.34791876776857067
541,0.2937034127830871
542,0.24669818054134884
543,0.2064918392039805
544,0.1772270465870578
545,0.15491754041883055
546,0.14013454442357465
547,0.12518136146478476
548,0.11572767450124388
549,0.11274641739692925
550,0.10681668352166596
551,0.10543706813584741
552,0.10795211030632434
553,0.10947424344885559
554,0.11030142411060484
555,0.11522391677800359
556,0.11997229978941082
557,0.12312593355263712
558,0.1286752812585712
559,0.13642408854929222
560,0.15159244442107167
561,0.172971430018525
562,0.21783610774648476
563,0.24772743636889993
564,0.3069882300354754
565,0.4128598270697448
566,0.5845815829397827
567,0.8722715749786163
568,1.2975068766267552
569,1.8677763802358287
570,2.165579886121846
571,2.569444848966222
572,4.2571701052780515
573,5.004645015870578
574,5.582162725459198
575,5.9331439952337846
576,6.165615040609583
577,6.265439474392472
578,6.5569683479426555
579,6.577779374327455
580,6.445702933170139
581,6.449039884611596
582,6.479458924547215
583,6.509320670482853
584,6.599393688103729
585,6.834071969769213
586,6.433198833492563
587,6.527494662962879
588,6.391668792747227
589,5.952676218430872
590,5.305081229426047
591,4.5923188771443115
592,3.9361905016001
593,3.366096700709603
594,2.8822164341878613
595,2.476220046811208
596,2.144669480952948
597,1.8700437571210413
598,1.6428471803643498
599,1.442616628005772
600,1.2603415990236948
601,1.092140142358783
602,0.9426385700923252
603,0.8054964606103316
604,0.6757477288564282
605,0.5643872571381199
606,0.47245150132178293
607,0.3848335315358764
608,0.31340138583647836
609,0.2508140398032781
610,0.19751792802473345
611,0.16226689004094497
612,0.1298112210401121
613,0.10664355700386596
614,0.0891596761883755
615,0.08248146746486618
616,0.07796211480821658
617,0.06950199521032463
618,0.07461028168258421
619,0.07997631674936789
620,0.09714827441406082
621,0.11440893632527871
622,0.13866808795332153
623,0.15779038820881786
624,0.16132027509246671
625,0.1647231323816547
626,0.17653405498445052
627,0.17527434966113997
628,0.16706373643167893
629,0.15731271447201567
630,0.14248838483501203
631,0.13137234903339778
632,0.125793772153159
633,0.10600810119958792
634,0.10048035708327041
635,0.08786512828748183
636,0.08394439324292091
637,0.07914498097351563
638,0.07712675565977678
639,0.07045483187795387
640,0.06638558305136977
641,0.065279099982116
642,0.061388796855863736
643,0.05448056093405795
644,0.057001522814024375
645,0.04822908751896948
646,0.043237894095361495
647,0.041653965509914403
648,0.03980808980051753
649,0.041886495007158686
650,0.034575101959213095
651,0.04260071061153714
652,0.037676428403869755
653,0.03369167467259615
654,0.037298758188219594
655,0.03322792517047235
656,0.036209499038597937
657,0.04076599672001158
658,0.037532625729226776
659,0.04162279194434704
660,0.04201678754924143
661,0.04546018938765228
662,0.048548694275939885
663,0.051821029607616476
664,0.06131981096238737
665,0.07468773268017759
666,0.08669845804476117
667,0.10553064943431933
668,0.12561355587480683
669,0.14791221517273434
670,0.17025879312660974
671,0.2007679902564068
672,0.23030547519952704
673,0.26212766938098175
674,0.2929481040984099
675,0.3220501112186993
676,0.35716008658805865
677,0.38945653952096104
678,0.4209315947712504
679,0.4498257183894949
680,0.47010509094669195
681,0.4839163880705475
682,0.4834680650587182
683,0.4641787046859549
684,0.43128830057162215
685,0.39182654256950955
686,0.35772423483433635
687,0.3311917981680428
688,0.3092599934895863
689,0.28318881225482384
690,0.2625282922519081
691,0.24982955293470277
692,0.22648788523621177
693,0.20398941377887803
694,0.1858538072865734
695,0.16801740276330124
696,0.150562316095606
697,0.13686733646673388
698,0.12477122190207868
699,0.11113334662958696
700,0.1032168029528393
701,0.09622697518081602
702,0.08626529646135617
703,0.08035467663327411
704,0.07641602827991933
705,0.0753384729740989
706,0.07266780290956243
707,0.06702796449309734
708,0.06753673465739474
709,0.06862383391143223
710,0.06834842486998016
711,0.07069492100710839
712,0.07163646566094428
713,0.07375909731487473
714,0.08062382247954636
715,0.08585192209412318
716,0.09319310934987057
717,0.10437264080070263
718,0.11160572831695381
719,0.12075920095407189
720,0.13873100670396843
721,0.15898111638130596
722,0.18241277499038522
723,0.2141122068680843
724,0.2586773006634109
725,0.3139130003406583
726,0.3917542754002332
727,0.5024800635849656
728,0.656980517482959
729,0.886339091678066
730,1.2029151076018725
731,1.6263979949405705
732,1.8576377637579353
733,2.230695592948821
734,3.3706712264000345
735,3.8615712131852797
736,4.133117338262652
737,4.249090272325675
738,4.3409198394789055
739,4.475284618465455
740,4.635973159033394
741,4.741728693834761
742,4.716653484659618
743,4.581046672560921
744,4.479263533191404
745,4.512712609624837
746,4.658979605100659
747,4.811641171856245
748,4.802540852591541
749,4.594013459598379
750,4.29445078528747
751,3.99197867423294
752,3.7260683557702596
753,3.490945407251365
754,3.25306661329049
755,2.99347667041484
756,2.708824684792818
757,2.414424679765527
758,2.1271171165316125
759,1.8725432207165777
760,1.6492253251371862
761,1.4649844359084483
762,1.3088349416236795
763,1.1716351588050595
764,1.0459927665127915
765,0.9220498182659949
766,0.8078602343384893
767,0.7127120063108949
768,0.6269028490347721
769,0.5579173256221219
770,0.50350238362959
771,0.4607048763010757
772,0.43547287045640215
773,0.41840640079625646
774,0.4137940593164098
775,0.42471624947680775
776,0.44367146430949544
777,0.4755459355930647
778,0.5163691816559359
779,0.5522477433905295
780,0.6060809762591752
781,0.6608816200503955
782,0.7320341768545198
783,0.8082800010598201
784,0.9104630147055739
785,1.041625200829202
786,1.1994803809832668
787,1.3964459621500707
788,1.6314497584773886
789,1.9192369020095645
790,2.2656801016816
791,2.465338398919202
792,2.7977361292321925
793,3.5104855134214326
794,3.922918162937433
795,4.272732400984119
796,4.565617206501712
797,4.763866854371477
798,4.898805287179102
799,5.0403666427827085
800,5.288816647467623
801,5.543548332911511
802,5.717111463612456
803,5.920083379310333
804,5.743365418441156
805,5.963689233272952
806,5.696487304725489
807,5.119030064064882
808,4.600097838747649
809,4.102471898194994
810,3.6831525663677134
811,3.307235261649698
812,2.9859160735091805
813,2.683300620972777
814,2.4121359794137356
815,2.17192680770299
816,1.9645105513819296
817,1.7783329701230854
818,1.6072110729001714
819,1.4649169518919072
820,1.3294668723390108
821,1.2003864693603379
822,1.0847695337653946
823,0.9828467045593938
824,0.8865830496570386
825,0.8094142373264641
826,0.7269485855880848
827,0.6589584282203271
828,0.5990868977397703
829,0.543728424193519
830,0.49207100549536964
831,0.44052196529201226
832,0.3968330107942244
833,0.3490370680717907
834,0.31104171742588393
835,0.27487081292341964
836,0.2371728169922569
837,0.20110766043129225
838,0.17958841377211
839,0.1498665093753706
840,0.1418254355605788
841,0.2436200770714676
842,0.21993851853198465
843,0.20187747055407335
844,0.25883010902201087
845,0.2498363669948882
846,0.23461380042337754
847,0.23145562586707324
848,0.2779869486165689
849,0.2762221413788679
850,0.27407888192625784
851,0.3002516110762701
852,0.3340451794152144
853,0.3423616932920026
854,0.3358730827497567
855,0.3834619789812046
856,0.43278444760260415
857,0.46909605255987663
858,0.5269733970715731
859,0.5806631551266372
860,0.6005486937190101
861,0.6534073688738768
862,0.6915323300668166
863,0.7550335980968115
864,0.787063389163215
865,0.8522646407344538
866,0.9171594629928792
867,0.9689787708308883
868,1.0098692732256511
869,1.0742159011496133
870,1.092877036695214
871,1.0763407610624207
872,1.1261424159665268
873,1.165547865746679
874,1.1589199023132493
875,1.155877294235684
876,1.1438690931344668
877,1.1161058706940334
878,1.0916185619049124
879,1.0589609207778388
880,1.0198866845501886
881,1.0039035509303726
882,0.9546514594514377
883,0.9124056169063692
884,0.8529566316648243
885,0.8138414684077075
886,0.7780091193486927
887,0.7254666306856166
888,0.7185821379438748
889,0.6750474016989874
890,0.6547749002263235
891,0.616200745952681
892,0.580881884093394
893,0.5503641888593513
894,0.5170156336977423
895,0.47446088291614785
896,0.4537553147306779
897,0.4473736828352983
898,0.41901455220900896
899,0.39163804066445795
900,0.38890904909265167
901,0.36305077128118857
902,0.3428854690372207
903,0.33081858333036673
904,0.31036038894305107
905,0.28012354901179837
906,0.27271662828533305
907,0.25205152699101574
908,0.24356399608709167
909,0.22020944507628037
910,0.20950583406057266
911,0.20505690076260819
912,0.19803415983913575
913,0.1895120899302667
914,0.17187171193017048
915,0.15755186878984628
916,0.14814358175617715
917,0.14159596768616312
918,0.1325026063943564
919,0.13083029569190407
920,0.12094029156887443
921,0.11171623050877555
922,0.10435042290530894
923,0.1123867007458057
924,0.10047367821801356
925,0.08718405591226697
926,0.08006638770624641
927,0.0783690005684401
928,0.08392897432281665
929,0.07860613036267283
930,0.07400106306514487
931,0.07328057685859202
932,0.06862736943146674
933,0.05985572243846682
934,0.06850297050499532
935,0.06985934642863922
936,0.061100084161475055
937,0.058900556090376144
938,0.056662366835316114
939,0.057372826811631805
940,0.055284040130098244
941,0.05478610016250496
942,0.058349261995233936
943,0.053976941323592875
944,0.0507167195551157
945,0.0596058681385121
946,0.057817019869791375
947,0.05311826963696342
948,0.05759443994799707
949,0.06193010361371876
950,0.05688180221368966
951,0.05916615702695527
952,0.06408342474912976
953,0.06513304696715383
954,0.05630428785369035
955,0.054124182998142034
956,0.05334995266446718
957,0.05392670586056236
958,0.06317553659959119
959,0.06489160025339591
960,0.0650107184892239
961,0.06878051250816664
962,0.06468444561252529
963,0.0663839196318674
964,0.06837649697048898
965,0.06738268144693227
966,0.06418687769092402
967,0.06832571283936129
968,0.06896017379530295
969,0.0647662998217553
970,0.06843543767787863
971,0.07513734877965828
972,0.07745698691201008
973,0.07423837145061785
974,0.07389870009755972
975,0.07338907523901583
976,0.07349298318679787
977,0.07224552526267436
978,0.07468201473756819
979,0.07649416725672276
980,0.07724504415320332
981,0.07645628344422883
982,0.08109918199034927
983,0.08071221113381122
984,0.08080041490281742
985,0.08440417571001779
986,0.08571245587337128
987,0.08382668250148617
988,0.0838216878859328
989,0.0860043236504211
990,0.08404892031361277
991,0.08323884374677482
992,0.08653514359643966
993,0.09277392010053886
994,0.09216743072756906
995,0.09055106864772555
996,0.0898724315698125
997,0.0901598720595218
998,0.089992903465969
999,0.09059851854502399
1000,0.0916148885872905
1001,0.09244422204588698
1002,0.092415212600794
1003,0.0920845879005221
1004,0.0927441861824605
1005,0.09294695798925989
1006,0.09088540588540361
1007,0.09325870353656485
1008,0.09569336224749869
1009,0.09417664169985973
1010,0.09107373296100141
1011,0.09061171325127848
1012,0.09171823569679405
1013,0.09081149228158902
1014,0.08997191718910402
1015,0.09098034433498348
1016,0.09141808714056698
1017,0.08959267503218427
1018,0.08893573825635492
1019,0.08977774783144366
1020,0.08941828872695323
1021,0.0885792822391882
1022,0.08760650767960332
1023,0.08569076822291977
1024,0.08398885408462475
1025,0.08125741978714318
1026,0.0815233248850109
1027,0.08285599697091306
1028,0.08195590502890404
1029,0.07784164869959476
1030,0.07532794768691198
1031,0.07635942184672206
1032,0.07665117717551984
1033,0.07652652242010172
1034,0.07752137582365881
1035,0.07620500177142442
1036,0.0738571706417388
1037,0.0726753542077363
1038,0.07126264731341792
1039,0.07119787976401537
1040,0.07178799024229221
1041,0.07176806895404675
1042,0.07178312186851032
1043,0.06976997334003188
1044,0.06860811600199135
1045,0.06820939694480765
1046,0.06855640773271166
1047,0.06795851952739329
1048,0.06794754039878415
1049,0.06569454537090302
1050,0.0646822128528528
1051,0.06553282501025892
1052,0.06501990204186758
1053,0.06644560665873334
1054,0.06878907010384139
1055,0.06891484653109226
1056,0.06636991301276951
1057,0.06820236288748482
1058,0.06950683154126791
1059,0.0701726609219564
1060,0.07069830313188752
1061,0.06955824041453362
1062,0.06832936341230855
1063,0.06688971011232892
1064,0.06719184800822608
1065,0.07024107573261484
1066,0.06974358199782005
1067,0.07101456714508281
1068,0.07023086900910291
1069,0.07210252480947066
1070,0.07241025401079182
1071,0.07036989881004896
1072,0.071608053925176
1073,0.07179599661500635
1074,0.07224508992701795
1075,0.07212455747256796
1076,0.07113311526057853
1077,0.07144335352011999
1078,0.0708302843605495
1079,0.07112708659312061
1080,0.07092677599835007
1081,0.07212247215901857
1082,0.0698951232874574
1083,0.07090885098239896
1084,0.06937223189613317
1085,0.0671100280915704
1086,0.06667804746594652
1087,0.06628409172335603
1088,0.06510753003631709
1089,0.06514561444026423
1090,0.06555106354586115
1091,0.06431059796900374
1092,0.06460004883327075
1093,0.0640402299169327
1094,0.06220554222126884
1095,0.061583752987143026
1096,0.057734661843678925
1097,0.0600330752479592
1098,0.0606360945864477
1099,0.05814855340087366
1100,0.05708235405973938
1101,0.058305946261308694
1102,0.05860816065051888
1103,0.056441289497394465
1104,0.055682542883110475
1105,0.05769458934630611
1106,0.05667132033738387
1107,0.05242943478763662
1108,0.05481312341025313
1109,0.056075596017837626
1110,0.054950381544609295
1111,0.053962931860526586
1112,0.0537910007014597
1113,0.05689061626542258
1114,0.05522541490190469
1115,0.052183152650091325
1116,0.05317618093854248
1117,0.05448451833542589
1118,0.05154254898639277
1119,0.05233177469542749
1120,0.05369641353101362
1121,0.05246113400670405
1122,0.04846639959503718
1123,0.05093856674046493
1124,0.05285111092376571
1125,0.052387623356943136
1126,0.04857079681869636
1127,0.051258806159216075
1128,0.05195057489171484
1129,0.052260061124692836
1130,0.04854768715023061
1131,0.04880952137422656
1132,0.048932063483710264
1133,0.04872780033368862
1134,0.048191565267123426
1135,0.050100256029656176
1136,0.05105656460973185
1137,0.04878508604028409
1138,0.04890961938151284
1139,0.05204695364133305
1140,0.05011029159962854
1141,0.04823698971370982
1142,0.04803371166753312
1143,0.050116913776964145
1144,0.048851461676169494
1145,0.0485649597932265
1146,0.04925382015181223
1147,0.051187623658318415
1148,0.04985841860568674
1149,0.048718820428230725
1150,0.05057419487557624
1151,0.051132087067004894
1152,0.04931649974938268
1153,0.04771080802891614
1154,0.04801906425521163
1155,0.04707422164904851
1156,0.04752771510691178
1157,0.049928435878159316
1158,0.0513412620541136
1159,0.05060329139037889
1160,0.04983991233284013
1161,0.05086426158015622
1162,0.04976150875826901
1163,0.050423083047457684
1164,0.04902352997655979
1165,0.04876835781294564
1166,0.05185689779403613
1167,0.05087029510058505
1168,0.05192729254929396
1169,0.05079051812041224
1170,0.05015663399911552
1171,0.05101423697722307
1172,0.050708187687782624
1173,0.04894489505599564
1174,0.049431736721709196
1175,0.05070375642273217
1176,0.05103092993592484
1177,0.051409457158475336
1178,0.05201216364497929
1179,0.05360760171097456
1180,0.053320421449401634
1181,0.05234138856735826
1182,0.05316355833558206
1183,0.05350834627084389
1184,0.05082833863202052
1185,0.05291688701510111
1186,0.05463476900000619
1187,0.054347277206729716
1188,0.05418207567956701
1189,0.05705781826096645
1190,0.058669420776055636
1191,0.057785576613858636
1192,0.05541325122605345
1193,0.05667875685056356
1194,0.05997021426118754
1195,0.05980368150134918
1196,0.05835095726199713
1197,0.05811128401960808
1198,0.06170302392848237
1199,0.06226783752539755
1200,0.063493703004043
1201,0.06462414593239929
1202,0.06528896635804915
1203,0.06464900224439152
1204,0.06503876194302438
1205,0.06732396225406356
1206,0.06920665441607365
1207,0.06926307668690179
1208,0.06998252353075052
1209,0.07145848226677853
1210,0.07338113821514725
1211,0.0749606930777349
1212,0.07552263197379472
1213,0.0761219377491884
1214,0.07553595062261165
1215,0.0778753481523542
1216,0.07959328363308127
1217,0.07954924156036713
1218,0.07929623527876717
1219,0.08022139447481225
1220,0.08061764640326508
1221,0.0803904120660659
1222,0.08205899361189384
1223,0.08295843471490905
1224,0.08432373344070476
1225,0.08327332768583018
1226,0.08297058769192156
1227,0.08259582217762063
1228,0.08116998398133468
1229,0.08015115753952151
1230,0.08190256026464704
1231,0.08338423819625373
1232,0.08206195645957282
1233,0.08198867086958406
1234,0.08142291390792122
1235,0.07848549614658151
1236,0.07939159351732039
1237,0.07999537066833895
1238,0.0779037950798167
1239,0.0772686822173747
1240,0.07638673437604693
1241,0.07636595324485462
1242,0.07531225170515254
1243,0.07361560775263909
1244,0.07482296778097619
1245,0.07541449205620099
1246,0.07480904171277314
1247,0.0747451859338859
1248,0.07520366346240559
1249,0.07375268449490102
1250,0.07186485807098264
1251,0.07352509271532348
1252,0.07432679020886801
1253,0.07269804282295622
1254,0.07105612757837254
1255,0.07012909508705656
1256,0.07121409548029867
1257,0.07134573952735113
1258,0.07183305842510346
1259,0.07094751698061463
1260,0.07158727960790978
1261,0.0703125880786386
1262,0.06905716237844928
1263,0.06857638227607321
1264,0.06943398663686451
1265,0.06795161163870844
1266,0.06685950838460553
1267,0.06783474337366235
1268,0.06869876896687588
1269,0.0675726277211608
1270,0.06799292857110562
1271,0.06689551457817489
1272,0.06667524738146491
1273,0.06555610818015767
1274,0.06484749208331975
1275,0.06753957708521141
1276,0.06791322836127711
1277,0.06654327052674258
1278,0.06506240947211817
1279,0.06541346373771151
1280,0.06691555591442078
1281,0.0670762132668512
1282,0.06782258218866888
1283,0.06724208428525591
1284,0.06609517482323035
1285,0.06491826834764591
1286,0.06677065652022596
1287,0.06841896435852668
1288,0.06775414380576583
1289,0.06725009746344224
1290,0.06860162541309434
1291,0.06882962534217096
1292,0.06851189646266742
1293,0.06770272617698314
1294,0.06925527502002171
1295,0.07141007775673236
1296,0.06983049678573972
1297,0.06968113163208534
1298,0.0709373457961584
1299,0.07013969280373189
1300,0.07199923950062193
1301,0.075143107975298
1302,0.0728091389499268
1303,0.07196321663628313
1304,0.07290292421416722
1305,0.0753241511465228
1306,0.07529845748467778
1307,0.07673067813853063
1308,0.0781576972757565
1309,0.07819585273384622
1310,0.07869006187809746
1311,0.07906929859364586
1312,0.07973823848358941
1313,0.08188538854642102
1314,0.08249990186945522
1315,0.08342003975827339
1316,0.08569075916905455
1317,0.0869307618936268
1318,0.0878473620165261
1319,0.08939571959215376
1320,0.09105147599870267
1321,0.09304491332973108
1322,0.09416715154220623
1323,0.09449658690163676
1324,0.09793693023676053
1325,0.10037552492315993
1326,0.10153213091499214
1327,0.10323433366952672
1328,0.10717890476950553
1329,0.10825094426701587
1330,0.11120233410516378
1331,0.11251406511688544
1332,0.11754003949710157
1333,0.12017095177611914
1334,0.12147263476115522
1335,0.12424290245128056
1336,0.1281498240709822
1337,0.13302158481823212
1338,0.13405202890833556
1339,0.13825496752229993
1340,0.14340510038348753
1341,0.1458995018177931
1342,0.14894123847606844
1343,0.15556352414895236
1344,0.15856225760820575
1345,0.16131362532544946
1346,0.1664912537515486
1347,0.17252295794708883
1348,0.1744901221390569
1349,0.1778854356927686
1350,0.18693608632274117
1351,0.1929269309439594
1352,0.19923241502360511
1353,0.20253322004302254
1354,0.21088571923968624
1355,0.21506412343502324
1356,0.2210981042667628
1357,0.22894284716171698
1358,0.23619359684815988
1359,0.24304746281197587
1360,0.24782159273706106
1361,0.25692802195490416
1362,0.26486302544941065
1363,0.27209711822767657
1364,0.27928622783882284
1365,0.2884238469920164
1366,0.296488797837944
1367,0.30229786615773935
1368,0.3130542052246277
1369,0.3196891582098105
1370,0.32911304814624764
1371,0.3380652367169783
1372,0.34567226723975697
1373,0.35439549295885575
1374,0.3618192172417145
1375,0.3684634073245072
1376,0.37747717699100436
1377,0.38619966613506174
1378,0.3951474946899294
1379,0.4036088166987575
1380,0.41414050356379106
1381,0.4230254421988151
1382,0.43029484919921956
1383,0.4405225796940282
1384,0.45134069150334866
1385,0.45877913294287764
1386,0.4696376466090817
1387,0.4795459937555835
1388,0.4881105963535326
1389,0.4962510152200128
1390,0.5079342502551547
1391,0.5175954985239615
1392,0.5254671239183644
1393,0.5347146917097796
1394,0.5442742999725403
1395,0.5539673791289415
1396,0.5614652967507816
1397,0.5726790840167397
1398,0.5815386245577832
1399,0.5899159224673141
1400,0.5978950948073578
1401,0.6084874603113772
1402,0.6143027413656126
1403,0.6217734871824145
1404,0.6315687921408446
1405,0.6395089144825508
1406,0.6461849353922502
1407,0.6535136131728587
1408,0.661343028131653
1409,0.6675067473785632
1410,0.6741737772655445
1411,0.6794758482667955
1412,0.6858807424255131
1413,0.6925653758278043
1414,0.6967048453806799
1415,0.7015951304986239
1416,0.7080552486340035
1417,0.7124362237125792
1418,0.7143589446516596
1419,0.7186634841460606
1420,0.7235122068253239
1421,0.7259205673943507
1422,0.7294641970160356
1423,0.73315072772164
1424,0.7355259273302792
1425,0.7376707770488986
1426,0.7423994167209234
1427,0.7448331339526222
1428,0.7456292104499103
1429,0.7467387787818369
1430,0.750056346235833
1431,0.7502521256722361
1432,0.7532174430119463
1433,0.7562701328571879
1434,0.7589728238123441
1435,0.758051493314474
1436,0.7604866144181106
1437,0.7643391440933369
1438,0.7656418031824292
1439,0.7662346177827943
1440,0.7682888841468554
1441,0.7718192751384105
1442,0.7740315521105465
1443,0.774960340833645
1444,0.7784269962182242
1445,0.7818920711475559
1446,0.783956179674846
1447,0.787411376236077
1448,0.7913999707088364
1449,0.7952849711827155
1450,0.7986604050727042
1451,0.8033736969688514
1452,0.8089542467729556
1453,0.8122204603349721
1454,0.8175470073304518
1455,0.823899298429446
1456,0.8309060786309803
1457,0.8371207794430477
1458,0.8423191409980217
1459,0.8493431900287578
1460,0.8575292363111984
1461,0.8657511534103042
1462,0.8739915853734168
1463,0.8832353298823785
1464,0.892593225684323
1465,0.9008330731697665
1466,0.91139619880091
1467,0.922190706636643
1468,0.9321467801622654
1469,0.9435810706304746
1470,0.9542958435012707
1471,0.9654999349021103
1472,0.9784523475923672
1473,0.9921925392377682
1474,1.005693687496195
1475,1.0187185920860644
1476,1.0318708927253448
1477,1.0466785952404225
1478,1.0590085779062166
1479,1.0722167056137364
1480,1.0866024596808983
1481,1.1006790563993158
1482,1.114697599239272
1483,1.129948648529378
1484,1.144183473191081
1485,1.1576975735126005
1486,1.1739480489157672
1487,1.1899276078623509
1488,1.2041179691756132
1489,1.2176271756594061
1490,1.2333512918834428
1491,1.249969584127406
1492,1.2631620665916437
1493,1.2759885152778092
1494,1.2908108379236891
1495,1.3058007432658334
1496,1.319549014839379
1497,1.3324040501545573
1498,1.3447242247374485
1499,1.358396501117419
1500,1.3707752252176522
1501,1.382550489384688
1502,1.3962863631897322
1503,1.4076660968510506
1504,1.4171395862086749
1505,1.4267508029163374
1506,1.4363909867069125
1507,1.4449974393133083
1508,1.4534597897694241
1509,1.4595599496405125
1510,1.468635638327053
1511,1.4747270203888574
1512,1.4809619002736933
1513,1.4842461459154694
1514,1.487097938851905
1515,1.4918260430746129
1516,1.4957258567716631
1517,1.4979904959377621
1518,1.4972982819750142
1519,1.498752947054495
1520,1.4989461534532853
1521,1.497406530662015
1522,1.4946994883163496
1523,1.4924769805903224
1524,1.4891967801760755
1525,1.4836953757192002
1526,1.4809324127610064
1527,1.4765130208236659
1528,1.471680219118429
1529,1.464244346352477
1530,1.4576021491776396
1531,1.450941934525607
1532,1.4423370185606865
1533,1.431740927051057
1534,1.4265380456543526
1535,1.4162359100829551
1536,1.403889255997909
1537,1.3948289965010605
1538,1.3836638517300945
1539,1.371511216045675
1540,1.3594826753420515
1541,1.3488387283233942
1542,1.3354710245519141
1543,1.3227458112113657
1544,1.3107835929515201
1545,1.2984812564060575
1546,1.2861453454562748
1547,1.2697652679342246
1548,1.258009423570106
1549,1.24656110928304
1550,1.2319335297593772
1551,1.2173344838235929
1552,1.2043451748837541
1553,1.1894571686216855
1554,1.1753465605284044
1555,1.1641587816047991
1556,1.1515623483241462
1557,1.1363800519637954
1558,1.1227990654205477
1559,1.1122260533186923
1560,1.0999043595078948
1561,1.0858184370991872
1562,1.0717984146926425
1563,1.0632509790947324
1564,1.0492467422477991
1565,1.0352430911620025
1566,1.0252226237427444
1567,1.011761617606064
1568,0.9978927705121727
1569,0.9868266630050802
1570,0.9754349047619044
1571,0.963387066826404
1572,0.9547897574094726
1573,0.9428493186863687
1574,0.9362313146915628
1575,0.9197461799438178
1576,0.9085123549090552
1577,0.8987850143729685
1578,0.8924981339617932
1579,0.8767020608105542
1580,0.867065496807955
1581,0.8580200430551701
1582,0.847911607219745
1583,0.8371979357053849
1584,0.8254477349791598
1585,0.817851782480304
1586,0.8070088689324717
1587,0.7932328170944358
1588,0.7846219933577403
1589,0.7765411801217497
1590,0.7631923239530181
1591,0.7560584405148185
1592,0.7472051980003085
1593,0.7359401245884136
1594,0.7268120743217017
1595,0.7191967341879153
1596,0.7124875315222443
1597,0.7017832725679627
1598,0.6896866899420242
1599,0.6821979215512999
1600,0.6764536424780208
1601,0.6611529260220137
1602,0.6542466780885186
1603,0.6471010837204212
1604,0.6377723185731281
1605,0.6276740063071462
1606,0.6212487748476228
1607,0.6129022437995242
1608,0.6066751075095271
1609,0.5979902406160886
1610,0.5906848485750336
1611,0.5836359182161339
1612,0.5740282459976234
1613,0.5693793146332253
1614,0.5619712562471169
1615,0.5527296011984999
1616,0.544544801938865
1617,0.5424730678721286
1618,0.5351137560696875
1619,0.5264340202275868
1620,0.5204282046005637
1621,0.517615681108361
1622,0.5123680309459706
1623,0.5035359227051366
1624,0.4976308614833742
1625,0.4930225853114638
1626,0.4876369953242694
1627,0.4793245979373322
1628,0.47442771454141064
1629,0.4693259124343434
1630,0.4629838036201943
1631,0.45661406148888584
1632,0.4522317525483801
1633,0.44762961841442017
1634,0.44386137365673606
1635,0.4383676027221506
1636,0.43374027620133004
1637,0.43014920730049333
1638,0.425316672632329
1639,0.418661995984555
1640,0.41339519807906155
1641,0.41039757632068996
1642,0.40453284328904826
1643,0.40047166110012467
1644,0.39851571014026055
1645,0.3917246362821716
1646,0.3845709051960011
1647,0.3809856752294918
1648,0.3797362251529337
1649,0.37422222827783513
1650,0.36871573937545543
1651,0.3670680823828214
1652,0.3618472882432078
1653,0.35737544522742937
1654,0.35572246014111
1655,0.3509199080347438
1656,0.34570318693664137
1657,0.3419363772782751
1658,0.3389472604663828
1659,0.33545440033269114
1660,0.33129221806650766
1661,0.3285758242237269
1662,0.32373153967493296
1663,0.3189241628334589
1664,0.31607852371600353
1665,0.31219881659793947
1666,0.3103223360993579
1667,0.30819964956135526
1668,0.3041768860598404
1669,0.2999097108982278
1670,0.2942213345567495
1671,0.2895310029496252
1672,0.2900362232914637
1673,0.28885620867397277
1674,0.2829435341946209
1675,0.27852646606261366
1676,0.27951410726278425
1677,0.27842462534606693
1678,0.2743210218840675
1679,0.27088108406156186
1680,0.26934349380490485
1681,0.2660933580794156
1682,0.2619607785099505
1683,0.25905642984452815
1684,0.25863727723665675
1685,0.25628612383719607
1686,0.2537452691931119
1687,0.25171238970884136
1688,0.25021138096905693
1689,0.2484750405367322
1690,0.24383818033144622
1691,0.24148173690257413
1692,0.2423683075197538
1693,0.2380571820391233
1694,0.2332159327428387
1695,0.2328807400890467
1696,0.23064343223108974
1697,0.2268980645147951
1698,0.22852852794422618
1699,0.22687983639250886
1700,0.2238086352948241
1701,0.22213378502715853
1702,0.22151472105975434
1703,0.2193730177555877
1704,0.21769662494665454
1705,0.21646637089490617
1706,0.2140891890783334
1707,0.21545692476557554
1708,0.21699455838328885
1709,0.21508798303874355
1710,0.2168136920123911
1711,0.21710025850513404
1712,0.21719614656760688
1713,0.22029380609926186
1714,0.223054907607398
1715,0.22423403238646267
1716,0.2238393123823974
1717,0.2215846656261633
1718,0.22463987156403675
1719,0.2271892531520836
1720,0.22732168603848701
1721,0.22702581248407006
1722,0.22727091570292424
1723,0.22406806460844653
1724,0.223324241958059
1725,0.22363848477490866
1726,0.2205877276288566
1727,0.21661684192148378
1728,0.21541109834338945
1729,0.21359616814135207
1730,0.211176672675776
1731,0.20949507839134962
1732,0.20365635851163666
1733,0.20153256697225208
1734,0.19893913491640025
1735,0.19428969061282308
1736,0.19211502375277423
1737,0.19073067059603144
1738,0.1894998222863835
1739,0.1851269173603305
1740,0.18127611984186043
1741,0.18364288567916054
1742,0.18106981455824456
1743,0.18260483043898112
1744,0.18122149176098112
1745,0.17918977558981308
1746,0.17864564690293827
1747,0.17652563362348594
1748,0.17858014397175448
1749,0.17849227398205847
1750,0.1738291694392875
1751,0.17472679650142742
1752,0.1756671996561272
1753,0.17746485518210764
1754,0.17739165532930956
1755,0.17711216293988552
1756,0.17986677675612395
1757,0.17626712540694234
1758,0.17793510230220688
1759,0.17871150180634277
1760,0.18199722754624403
1761,0.18183850304523252
1762,0.17928577271724744
1763,0.18191222157777287
1764,0.18121707367109408
1765,0.18289561430732704
1766,0.18260630074175555
1767,0.1855768869295782
1768,0.18873313332801045
1769,0.18682187117042215
1770,0.18966754905581729
1771,0.19022098267639076
1772,0.18938805322914254
1773,0.18978494572348525
1774,0.1929281019348359
1775,0.194011957703478
1776,0.19548649993430933
1777,0.19522937607218394
1778,0.19987656763629924
1779,0.201905637542676
1780,0.20184842071553
1781,0.20586851782268822
1782,0.20949189809007174
1783,0.20768097207654468
1784,0.21055447852234277
1785,0.21606253913561346
1786,0.22082390984304023
1787,0.2210482203077544
1788,0.2236034423751958
1789,0.22711890897831655
1790,0.2262835282966118
1791,0.2308078496607897
1792,0.2317364375536799
1793,0.23817615029534167
1794,0.2417431664073928
1795,0.24243029347125522
1796,0.24528127785799225
1797,0.25249827146874315
1798,0.2502133140580174
1799,0.25432761716807284
1800,0.26088959281979807
