# OperatorName = Michael Matus
# Modification = Created as New Dataset
# ModificationDateTime = fri aug 26 09:42:15 2022 Coordinated Universal Time (GMT+0:00)
# Parameters = 
# SampleDescription = MM04 BG20 535341 d=2.0 mm Q50mm
# InstrumentModel = Lambda 1050+
# InstrumentSerialNumber = 1060L2011032
# InstrumentSoftwareRevision = PerkinElmer UV WinLab 7.1.0.68 / 2.02.11 Lambda 900 UV/VIS/NIR, May 23 2018 11:23:04
# SlitWidth = 3350/servo 1800.8/1 860.8/1
# LampsUsed = UV/VIS
# InstrumentAccessories = CommonBeamDepol,RBeamAtt,SBeamAtt,uv/vis/nir detector, TDS WB InGaAs Detector
# UvVisSlitMode = Program
# NirSlitMode = Program
# NirSlitWidth = 3350/servo 1800.8/1 860.8/1
# UvVisIntegrationTime = 3350/2 1800.8/10 860.8/1
# NirIntegrationTime = 3350/2 1800.8/10 860.8/1
# NirDetectorGain = 3350/1.00 1800.8/2.00
# DetectorChangeAt = 1800.8 860.8
# SampleBeamPosition = Front
# CommonBeamDepolarizer = off
# AttenuatorsUsed = S:100 R:0.1
# DataSetChecksum = 0
# DataSetDataType = 16
# DataSetName = MM04_008.Sample
# DataSetAbscissaRange = 220 900
# DataSetOrdinateRange = -101525.0521 121128.2471
# DataSetInterval = -1
# DataSetNumPoints = 681
# DataSetXAxisLabel = nm
# DataSetXAxisUnitType = 11
# DataSetYAxisLabel = %T
# DataSetYAxisUnitType = 2
# DataSetSamplingMethod = 0
# DataSetFileType = 0
# DataSetAlias = MM04_008.Sample
# SourceFile = Transmission3.sp
nm,%T
220,2.83556200042429E-05
221,3.05013697191302E-05
222,2.69920201287463E-05
223,3.20396433789265E-05
224,3.39824406241738E-05
225,3.17697256665565E-05
226,3.10209827052558E-05
227,3.42042971215072E-05
228,4.02025456145895E-05
229,3.44645799454888E-05
230,3.29045979087247E-05
231,3.54662585204761E-05
232,3.92788329538922E-05
233,3.85321791783935E-05
234,3.63142926678243E-05
235,3.68258236041253E-05
236,3.69471319133675E-05
237,3.15658174492122E-05
238,3.25633545341909E-05
239,3.60373276982725E-05
240,3.45516627616477E-05
241,2.6140911268861E-05
242,2.87848475013214E-05
243,3.14903772264405E-05
244,2.26978312882586E-05
245,2.7838701542807E-05
246,3.04107462776117E-05
247,3.14338498423622E-05
248,3.00035917406194E-05
249,2.61860557264532E-05
250,2.57554725075833E-05
251,4.62448457533057E-05
252,0.00016969859725141
253,0.000686055148236318
254,0.00233731404342319
255,0.00672880394828577
256,0.0165207672811263
257,0.0399757672374622
258,0.0714912271845879
259,0.0988568705310747
260,0.143844624375274
261,0.203328941207995
262,0.299954473268527
263,0.461639342061082
264,0.687813390631378
265,0.959959785014323
266,1.2584818564441
267,1.58184566826561
268,1.9410386641087
269,2.32656046782187
270,2.74919673132796
271,3.22848138731171
272,3.71789533192546
273,4.20869037976202
274,4.77394140087348
275,5.4155441115283
276,6.02762693693703
277,6.70186791468497
278,7.42730752187888
279,8.12703709283535
280,8.83362102958848
281,9.58676469801058
282,10.3883663653923
283,11.1653294557981
284,11.910930764344
285,12.7273533158576
286,13.5709557251732
287,14.3040580240186
288,14.7681778344736
289,14.6885295000529
290,14.362989595009
291,14.029344480945
292,14.2569960693872
293,15.1262757455386
294,16.491937294221
295,18.3857499777818
296,20.1451094838394
297,21.5403464758946
298,21.8678141194343
299,20.506552703123
300,18.502729688815
301,17.4325496176812
302,17.762583741429
303,18.7201964301509
304,19.9065932444641
305,21.2656582322475
306,23.6507174978348
307,26.5217046443809
308,28.7009215217873
309,30.440658267538
310,31.8110087941394
311,32.5768363146224
312,33.7131087089704
313,34.2095024622487
314,34.87931217209
315,35.4053578031621
316,36.6162465781736
317,37.8554576630785
318,39.6339994537687
319,40.0280866537511
320,40.602014301946
321,39.7644083358927
322,37.072322018281
323,32.9304450359067
324,28.3876826816927
325,23.820158923216
326,20.0739735625169
327,17.175094006409
328,15.5695352394946
329,14.8203718751083
330,14.9031480687243
331,15.5146932346024
332,16.6314825803911
333,18.3723742070425
334,21.2308487567565
335,24.6235086841826
336,28.0729921931767
337,31.3971640763516
338,33.7986122143716
339,34.9260634666375
340,35.6433901627694
341,35.2464023307553
342,34.1397142305207
343,33.4721036728521
344,32.5914185329854
345,27.6951286150572
346,16.705912438747
347,5.59912569778374
348,1.28425217869221
349,0.37689583996907
350,0.274588184756555
351,0.29502081798426
352,0.344160643126651
353,0.449599842091131
354,0.421738767496653
355,0.300700674388546
356,0.138344028949427
357,0.0220107219230656
358,0.0364927220642961
359,0.18021022232289
360,0.955185010755203
361,3.79495837236841
362,10.3165034218707
363,20.5162373559381
364,32.3191791111693
365,44.7946077504759
366,56.3986283351553
367,66.0630375967976
368,72.3813841054074
369,76.8455397862135
370,79.5927960868203
371,78.8288930687217
372,78.3865993692761
373,77.9508417445101
374,77.9293240762208
375,78.1885250883579
376,77.4726847040307
377,77.9146457284973
378,76.6015355681322
379,79.986573637595
380,79.7313310523462
381,81.3121773458803
382,78.9326485706191
383,75.7771872817914
384,77.7893187363603
385,80.1440537814199
386,81.7552292570413
387,81.6915487177323
388,82.9713388499463
389,83.3048861667169
390,83.4049410195918
391,83.8974159769959
392,83.8592730228281
393,84.9576868158166
394,83.9642805856204
395,84.2565015489204
396,83.4558440316415
397,83.0987554649632
398,83.4157707948357
399,81.4306120803849
400,79.6492644935561
401,78.0004479665975
402,75.7787737912634
403,76.0762035417062
404,78.0282139963138
405,79.8792929116662
406,80.7047686620564
407,81.2575805040637
408,82.9079099156958
409,83.2150746280417
410,84.001636650076
411,83.7972878095453
412,83.6523815316889
413,83.8394972560493
414,82.5808331946931
415,82.1843732077299
416,80.8451187878149
417,78.9788725290556
418,76.8203378956381
419,76.5347872546196
420,76.5232967841507
421,75.2005262464271
422,72.7607406889299
423,72.8046216403145
424,73.0832049813691
425,73.861419278046
426,75.276665383332
427,72.5079736935219
428,53.4657812555283
429,27.9305594083726
430,22.3332402106772
431,26.7621995398494
432,30.7566037440405
433,31.7730215794819
434,29.5312267566388
435,25.4315226759523
436,20.4806790159131
437,15.779713457298
438,12.0354556353815
439,9.29820116605184
440,7.42753770951674
441,6.41380748781737
442,5.90647446197346
443,5.70575837682455
444,5.80326448379298
445,5.95993138302529
446,5.94608552212213
447,6.06685708281127
448,6.57135580983558
449,7.52249048926471
450,8.90941086628537
451,10.4412735312981
452,11.9791665303774
453,13.3294956468854
454,14.2980666599282
455,14.824462689997
456,14.880048202769
457,14.6092956584049
458,14.0514431447516
459,13.483671820578
460,12.8637263489281
461,12.1902743575707
462,11.6555316881022
463,11.2160661040969
464,10.796657896315
465,10.4010621339555
466,9.94316319894386
467,9.26266602705318
468,8.49343762123972
469,7.62360120427496
470,6.66278897334087
471,5.88991073920691
472,5.71456363634821
473,6.31300038198283
474,7.41868920068137
475,8.53653310116242
476,9.62737193192756
477,10.8262995366908
478,11.9491736123136
479,12.2419410590385
480,11.3563565527033
481,10.2373514974179
482,9.82365903488184
483,10.7326899320006
484,13.2440818071878
485,17.2766701595215
486,22.2607633633512
487,27.6825002811276
488,33.0256110299011
489,38.431252506201
490,43.4457681736087
491,47.1914437900986
492,49.6722560152288
493,50.7741720250957
494,50.8609036175121
495,49.8153117616478
496,47.5053320738297
497,44.6522706652828
498,41.7428614634219
499,38.7686781561971
500,35.6076597619853
501,32.586208307331
502,29.3953109107196
503,26.0022332188539
504,22.5064042532386
505,18.7204193320643
506,14.6721708485305
507,10.7270017075617
508,7.45924373384844
509,5.01358020136165
510,3.38927596134252
511,2.50126114469054
512,2.20210182143379
513,2.38293442370324
514,2.96550560249504
515,3.84948696719298
516,4.74714784782398
517,5.34408711648725
518,5.41144280789803
519,4.69832767131023
520,3.27248516846478
521,1.73422839900663
522,0.728915133030014
523,0.283927230124702
524,0.126488423430316
525,0.08331160076458
526,0.103475301397582
527,0.213879160765652
528,0.517835510791911
529,1.19540398178974
530,2.41390373562641
531,4.34910097309104
532,7.09223946894626
533,10.4873499531
534,14.4040781916038
535,18.8568210667862
536,23.4446135187266
537,28.082728729243
538,32.7007140140815
539,37.8965316979649
540,43.1165043416005
541,48.6225505341363
542,53.6316915337033
543,58.0838300391082
544,62.15583938017
545,65.2322264342086
546,67.0455383213778
547,68.5673690654566
548,69.1866165446595
549,69.9761124712674
550,69.930695944617
551,70.4729953974899
552,70.8746407195101
553,70.4564296985973
554,70.551622538072
555,69.9064409687145
556,69.1935488859927
557,68.6152704913103
558,67.3930248944159
559,65.4206370779327
560,62.7638447172836
561,59.3982569356075
562,52.7065456591326
563,48.5108153025543
564,40.7981976574542
565,29.929806200718
566,17.4296382105974
567,7.77493465609124
568,2.50890622682535
569,1.37996436934015
570,0.558900608345534
571,0.0137806659747489
572,0.00214947273860689
573,0.000447641555851975
574,0.000143019649148827
575,7.39792342054816E-05
576,5.44140271222356E-05
577,4.08675583900198E-05
578,2.30570040225217E-05
579,2.65975915021465E-05
580,1.18346807749112E-05
581,2.50903439364513E-05
582,2.15337587471464E-05
583,2.3030970283661E-05
584,1.43115584728311E-05
585,2.93036984661149E-05
586,2.54193825972905E-05
587,2.85486608496753E-05
588,5.20401615917145E-05
589,0.000212995332248621
590,0.00114506751898789
591,0.00560457888479204
592,0.0557207358297483
593,0.127693926951631
594,0.20677739784293
595,0.471942734725827
596,0.929552650268763
597,1.62464477050174
598,2.67097487505823
599,4.11978202757417
600,6.11418445876695
601,8.79728207255639
602,12.2986085112732
603,16.6739302104749
604,21.6260559774107
605,27.4870191186772
606,34.2593035195234
607,40.6748098734144
608,47.4355785351512
609,53.9321092845263
610,60.1252256085022
611,64.8979420697861
612,69.2886177011892
613,72.4409706070445
614,74.5041742634875
615,76.3926650248631
616,76.8376423924465
617,76.7671147294602
618,75.5052385866758
619,74.6386425234988
620,71.376700029664
621,67.7521996756612
622,64.7793927527191
623,62.6862542348509
624,62.7542928383843
625,62.0623872288997
626,60.5499337388069
627,60.7443619741502
628,63.2774355210651
629,65.0948501919813
630,67.3784655251904
631,68.6488561711608
632,70.4983590913655
633,72.5392469858491
634,75.8557262418242
635,76.0045637603807
636,75.9935906670118
637,77.4297091986224
638,77.8194173100365
639,78.5881727845253
640,78.770850559111
641,79.1905929626369
642,79.3838517767919
643,80.3269475237045
644,81.1973877797886
645,82.0430225094412
646,82.6902176301283
647,82.7527201501392
648,83.4943857712443
649,84.453282568822
650,83.8564255654588
651,83.4915507914243
652,84.4157789902162
653,84.3672739683224
654,84.5916702762867
655,84.6639894770959
656,83.8773553604419
657,84.1851603294533
658,83.1408100861513
659,83.3224487924624
660,82.6866972299201
661,82.0845866541522
662,81.8182118387868
663,79.8528430722599
664,78.1476683642843
665,76.1267716611526
666,73.3187505535458
667,69.9297526625635
668,66.6632576303645
669,63.3302779223747
670,59.3228995747718
671,55.5030476506761
672,52.055337200757
673,48.597205622089
674,45.1500309800714
675,41.8379734284415
676,39.0172557949676
677,36.0673945283568
678,33.3685077656718
679,31.5603844031252
680,29.9849288447936
681,29.6332930891983
682,30.4941840490919
683,32.5231326159789
684,35.3466635735587
685,38.6500089194479
686,41.3862915972993
687,43.5934072783691
688,45.8712333955362
689,48.6833324537021
690,51.5690084864915
691,52.8690207415216
692,55.8832229807262
693,58.2890800081035
694,60.9672765466126
695,63.5147808362681
696,66.0527713244047
697,67.981957704492
698,70.1530836211882
699,72.1880461685341
700,73.793670845754
701,74.8304084759416
702,76.3018219969174
703,77.165766000094
704,77.41448680656
705,78.0428290240136
706,78.1840372450594
707,78.4365221931835
708,77.7096661055793
709,77.6191802074728
710,77.9903747669113
711,77.3271123184496
712,76.5084290240903
713,76.7131015687491
714,75.8419458637004
715,73.6875273032852
716,72.1259548496688
717,70.9029960152651
718,70.0559301259169
719,68.0210185143266
720,64.8456614273671
721,61.7765619993368
722,57.7489252476722
723,53.0127737949392
724,47.6597457661594
725,40.909355710028
726,32.9570707053523
727,24.3614747908767
728,15.7054192715542
729,8.43746507695156
730,3.57519748536717
731,1.17844028541018
732,0.658408411495415
733,0.276078152154569
734,0.0209976166184557
735,0.00880246206932623
736,0.00587577624109666
737,0.00477288642413814
738,0.00368238924879278
739,0.00258097833964894
740,0.00186819253965891
741,0.00170187058503531
742,0.00212776514601697
743,0.00286509108016667
744,0.00306151833313733
745,0.00246122826179413
746,0.00170588382680145
747,0.00138618594601038
748,0.00181195121676245
749,0.00333233884455033
750,0.00687732932132295
751,0.0133517546787618
752,0.0233971031925055
753,0.0400155278133063
754,0.0706546255292713
755,0.132835650098864
756,0.259446025715789
757,0.507350214281057
758,0.941869751166224
759,1.6227856139056
760,2.57902442767998
761,3.79259685521331
762,5.27257006318801
763,7.10723781611024
764,9.57189457411914
765,12.5307763967578
766,16.0491384130401
767,19.6951397451837
768,23.4756682448874
769,27.0025019798798
770,30.2592998808605
771,32.5033949344088
772,33.9441492637627
773,34.7904507598296
774,34.9009713612395
775,33.6988991247215
776,31.627763014771
777,29.130557009307
778,26.4990108308289
779,23.8662003256386
780,20.9716890359098
781,18.2334888509639
782,15.4728870125999
783,12.5650957933543
784,9.66506445345683
785,6.94634336417025
786,4.64831198809234
787,2.82225087820317
788,1.54780688578651
789,0.7463943993506
790,0.480844659688048
791,0.22661582763128
792,0.0468700813667591
793,0.0176935355131313
794,0.0072482585656157
795,0.00356595533646659
796,0.00202525566906117
797,0.00134082268183656
798,0.000993662792771124
799,0.000663712725907653
800,0.000384825110232171
801,0.000258435987967644
802,0.000117262686449074
803,9.22563462498654E-05
804,8.67086988743654E-05
805,0.000155867341266388
806,0.000429286669115444
807,0.00139118561612739
808,0.00439552675732579
809,0.0126549730653521
810,0.0308588425258546
811,0.0690865731105472
812,0.141004268568036
813,0.267281444880242
814,0.480718199804093
815,0.800716021160868
816,1.26600081568971
817,1.86043534689721
818,2.65063179837328
819,3.65457367370677
820,5.02131864523668
821,6.48015678568783
822,8.36213693308165
823,10.6860788612821
824,13.056245150469
825,15.4264017115128
826,18.0436287970202
827,20.9739959839812
828,23.8977564445356
829,26.6892869791911
830,30.5741335475814
831,34.1959865626283
832,37.5783186215682
833,41.2798122166312
834,44.9208397083215
835,47.5084911304675
836,51.2798000876092
837,54.9321944788169
838,57.7869431185326
839,59.090514820223
840,61.5603573748326
841,62.8328172787007
842,64.8268607520081
843,66.3789590755512
844,66.1571636894144
845,66.6741633514499
846,66.5235188919485
847,66.0220461596004
848,64.5977972264079
849,63.2976713264179
850,61.257985405387
851,55.9879112526991
852,52.3728671124068
853,46.3233067050895
854,39.15943417139
855,32.3498963215642
856,25.5795021452462
857,20.6639179860771
858,15.9329411497166
859,12.7927301646575
860,10.5722631267374
861,-3.01063608937495
862,-3193.292
863,-3195.5366
864,-3995.5057
865,-2896.1743
866,-2493.9777
867,-9.72391167896149
868,-2900.00544685855
869,-3723.3921
870,-1703.7518
871,-2911.7053
872,-692.519797104585
873,-3263.1969
874,0
875,0
876,-1721.7887
877,-2184.6306
878,-926.616432606941
879,-4450.6092
880,-1503.99793333333
881,-8778.40702473135
882,-100131.200805995
883,-17241.8839
884,-20862.0645
885,-23532.3284
886,-25917.2668
887,-16.4469202765554
888,-20325.2411
889,61531.2805
890,-19252.6947
891,-40824.6715
892,-31743.8426
893,-101525.0521
894,-41590.8417
895,121128.2471
896,-38718.5695209033
897,-91206.5187379327
898,-52877.1107
899,-45.246629915984
900,-88834.1247
